841,0.5500,0.6250
398,0.5500,0.6250
772,0.5500,0.6250
369,0.5500,0.6250
789,0.5500,0.6250
347,0.5500,0.6250
727,0.5500,0.6250
281,0.5500,0.6250
799,0.5500,0.6250
276,0.5500,0.6250
737,0.5500,0.6250
260,0.5500,0.6250
608,0.5500,0.6250
209,0.5500,0.6250
659,0.5500,0.6250
143,0.5500,0.6250
610,0.5500,0.6250
248,0.5500,0.6250
679,0.5500,0.6250
263,0.5500,0.6250
671,0.5500,0.6250
319,0.5500,0.6250
719,0.5500,0.6250
460,0.5500,0.6250
819,0.5500,0.6250
304,0.5500,0.6250
841,0.5500,0.6250
240,0.5500,0.6250
703,0.5500,0.6250
298,0.5500,0.6250
744,0.5750,0.6300
440,0.5750,0.6300
652,0.5750,0.6300
349,0.5750,0.6300
710,0.5750,0.6300
210,0.5750,0.6300
752,0.5750,0.6300
289,0.5750,0.6300
747,0.5750,0.6300
470,0.5750,0.6300
696,0.5850,0.6350
460,0.5850,0.6350
1018,0.5850,0.6350
647,0.5850,0.6350
1018,0.5850,0.6350
690,0.5850,0.6350
1018,0.5850,0.6350
615,0.5850,0.6350
1018,0.5850,0.6350
629,0.5850,0.6350
1018,0.5850,0.6350
572,0.5850,0.6350
1018,0.5850,0.6350
763,0.5850,0.6350
1018,0.5850,0.6350
635,0.5850,0.6350
841,0.5850,0.6350
443,0.5850,0.6350
687,0.5850,0.6350
381,0.5850,0.6350
670,0.5850,0.6350
230,0.5850,0.6350
584,0.5850,0.6350
228,0.5850,0.6350
719,0.5850,0.6350
271,0.5850,0.6350
574,0.5850,0.6350
185,0.5850,0.6350
687,0.5850,0.6350
346,0.5850,0.6350
664,0.5500,0.6300
243,0.5500,0.6300
665,0.5500,0.6300
228,0.5500,0.6300
686,0.5500,0.6300
255,0.5500,0.6300
485,0.5500,0.6300
196,0.5500,0.6300
651,0.5500,0.6300
232,0.5500,0.6300
866,0.5400,0.6300
432,0.5400,0.6300
848,0.5400,0.6300
395,0.5400,0.6300
751,0.5400,0.6300
262,0.5400,0.6300
739,0.5400,0.6300
398,0.5400,0.6300
831,0.5400,0.6300
327,0.5400,0.6300
687,0.5400,0.6300
329,0.5400,0.6300
675,0.5400,0.6300
240,0.5400,0.6300
614,0.5400,0.6300
208,0.5400,0.6300
611,0.5400,0.6300
149,0.5400,0.6300
589,0.5400,0.6300
137,0.5400,0.6300
633,0.5550,0.6300
199,0.5550,0.6300
645,0.5550,0.6300
200,0.5550,0.6300
563,0.5550,0.6300
203,0.5550,0.6300
605,0.5550,0.6300
190,0.5550,0.6300
790,0.5550,0.6300
90,0.5550,0.6300
551,0.5650,0.6300
195,0.5650,0.6300
536,0.5650,0.6300
200,0.5650,0.6300
643,0.5650,0.6300
195,0.5650,0.6300
682,0.5650,0.6300
222,0.5650,0.6300
586,0.5650,0.6300
209,0.5650,0.6300
527,0.5700,0.6300
189,0.5700,0.6300
593,0.5700,0.6300
217,0.5700,0.6300
620,0.5700,0.6300
112,0.5700,0.6300
466,0.5700,0.6300
115,0.5700,0.6300
523,0.5700,0.6300
211,0.5700,0.6300
739,0.5700,0.6350
372,0.5700,0.6350
768,0.5700,0.6350
264,0.5750,0.6350
601,0.5750,0.6350
228,0.5750,0.6350
647,0.5750,0.6350
293,0.5750,0.6350
635,0.5750,0.6350
589,0.5750,0.6350
625,0.5900,0.6450
0,0.5900,0.6450
0,0.5900,0.6450
0,0.5900,0.6450
0,0.5900,0.6450
0,0.5900,0.6450
170,0.5900,0.6450
0,0.5900,0.6450
491,0.5900,0.6450
104,0.5900,0.6450
684,0.5950,0.6500
304,0.5950,0.6500
641,0.5950,0.6500
352,0.5950,0.6500
660,0.5950,0.6500
364,0.5950,0.6500
781,0.5950,0.6500
467,0.5950,0.6500
818,0.5950,0.6500
288,0.5950,0.6500
451,0.5950,0.6500
72,0.5950,0.6500
533,0.5950,0.6500
233,0.5950,0.6500
757,0.5950,0.6500
402,0.5950,0.6500
783,0.5950,0.6500
276,0.5950,0.6500
819,0.5950,0.6500
415,0.5950,0.6500
791,0.6000,0.6600
286,0.6000,0.6600
612,0.6000,0.6600
359,0.6000,0.6600
725,0.6000,0.6600
390,0.6000,0.6600
719,0.6000,0.6600
373,0.6000,0.6600
885,0.6000,0.6600
368,0.6000,0.6600
691,0.6050,0.6600
391,0.6050,0.6600
772,0.6050,0.6600
387,0.6050,0.6600
912,0.6050,0.6650
399,0.6050,0.6650
888,0.6050,0.6650
420,0.6050,0.6650
787,0.6050,0.6650
487,0.6050,0.6650
778,0.6100,0.6700
389,0.6100,0.6700
831,0.6100,0.6700
407,0.6100,0.6700
804,0.6100,0.6700
403,0.6100,0.6700
783,0.6100,0.6700
465,0.6100,0.6700
828,0.6100,0.6700
473,0.6100,0.6700
639,0.6150,0.6750
418,0.6150,0.6750
834,0.6150,0.6750
418,0.6150,0.6750
808,0.6150,0.6750
278,0.6150,0.6750
591,0.6150,0.6750
299,0.6150,0.6750
613,0.6150,0.6750
336,0.6150,0.6750
765,0.6200,0.6800
455,0.6200,0.6800
763,0.6200,0.6800
381,0.6200,0.6800
745,0.6200,0.6800
375,0.6200,0.6800
746,0.6200,0.6800
319,0.6200,0.6800
751,0.6200,0.6800
365,0.6200,0.6800
735,0.6300,0.6850
374,0.6300,0.6850
802,0.6300,0.6850
383,0.6300,0.6850
747,0.6300,0.6850
400,0.6300,0.6850
835,0.6300,0.6850
457,0.6300,0.6850
828,0.6300,0.6850
478,0.6300,0.6850
767,0.6350,0.6900
509,0.6350,0.6900
854,0.6350,0.6900
535,0.6350,0.6900
814,0.6350,0.6900
433,0.6350,0.6900
714,0.6350,0.6900
438,0.6350,0.6900
627,0.6350,0.6900
199,0.6350,0.6900
755,0.6350,0.6900
335,0.6350,0.6900
695,0.6350,0.6900
400,0.6350,0.6900
667,0.6350,0.6900
338,0.6350,0.6900
731,0.6350,0.6900
331,0.6350,0.6900
540,0.6350,0.6900
364,0.6350,0.6900
654,0.6400,0.7000
324,0.6400,0.7000
742,0.6400,0.7000
457,0.6400,0.7000
735,0.6400,0.7000
323,0.6400,0.7000
726,0.6400,0.7000
352,0.6400,0.7000
700,0.6400,0.7000
243,0.6400,0.7000
550,0.6450,0.7050
322,0.6450,0.7050
679,0.6450,0.7050
271,0.6450,0.7050
708,0.6450,0.7050
321,0.6450,0.7050
610,0.6450,0.7100
414,0.6450,0.7100
668,0.6450,0.7100
266,0.6450,0.7100
628,0.6500,0.7150
294,0.6500,0.7150
616,0.6500,0.7150
302,0.6500,0.7150
659,0.6500,0.7150
363,0.6500,0.7150
687,0.6500,0.7150
336,0.6500,0.7150
664,0.6500,0.7150
191,0.6500,0.7150
652,0.6600,0.7200
278,0.6600,0.7200
624,0.6600,0.7200
292,0.6600,0.7200
675,0.6600,0.7200
369,0.6600,0.7200
662,0.6600,0.7200
353,0.6600,0.7200
668,0.6600,0.7200
392,0.6600,0.7200
788,0.6600,0.7200
491,0.6600,0.7200
878,0.6600,0.7200
531,0.6600,0.7200
838,0.6600,0.7200
486,0.6600,0.7200
715,0.6600,0.7200
435,0.6600,0.7200
715,0.6600,0.7200
325,0.6600,0.7200
611,0.6600,0.7200
287,0.6600,0.7200
664,0.6600,0.7200
336,0.6600,0.7200
557,0.6600,0.7200
196,0.6600,0.7200
555,0.6600,0.7200
207,0.6600,0.7200
452,0.6600,0.7200
107,0.6600,0.7200
543,0.6600,0.7200
379,0.6600,0.7200
623,0.6600,0.7200
426,0.6600,0.7200
842,0.6600,0.7200
482,0.6600,0.7200
827,0.6600,0.7200
614,0.6600,0.7200
910,0.6600,0.7200
660,0.6600,0.7200
1018,0.6600,0.7200
605,0.6600,0.7200
901,0.6600,0.7200
517,0.6600,0.7200
811,0.6600,0.7200
524,0.6600,0.7200
919,0.6600,0.7200
512,0.6600,0.7200
687,0.6600,0.7200
391,0.6600,0.7200
754,0.6700,0.7200
382,0.6700,0.7200
711,0.6700,0.7200
419,0.6700,0.7200
758,0.6700,0.7200
415,0.6700,0.7200
732,0.6700,0.7200
361,0.6700,0.7200
772,0.6700,0.7200
328,0.6700,0.7200
722,0.6750,0.7200
347,0.6750,0.7200
720,0.6750,0.7200
316,0.6750,0.7200
588,0.6750,0.7200
259,0.6750,0.7200
710,0.6750,0.7200
270,0.6750,0.7200
521,0.6750,0.7200
225,0.6750,0.7200
599,0.6850,0.7200
276,0.6850,0.7200
551,0.6850,0.7200
281,0.6850,0.7200
698,0.6850,0.7200
343,0.6850,0.7200
629,0.6850,0.7200
252,0.6850,0.7200
588,0.6850,0.7200
321,0.6850,0.7200
521,0.6900,0.7200
268,0.6900,0.7200
593,0.6900,0.7200
280,0.6900,0.7200
621,0.6900,0.7200
374,0.6900,0.7200
614,0.6900,0.7200
314,0.6900,0.7200
571,0.6900,0.7200
340,0.6900,0.7200
675,0.6950,0.7200
285,0.6950,0.7200
687,0.6950,0.7200
335,0.6950,0.7200
561,0.6950,0.7200
288,0.6950,0.7200
432,0.6950,0.7200
199,0.6950,0.7200
542,0.6950,0.7200
263,0.6950,0.7200
609,0.6950,0.7200
365,0.6950,0.7200
676,0.6950,0.7200
360,0.6950,0.7200
585,0.6950,0.7200
341,0.6950,0.7200
662,0.6950,0.7200
384,0.6950,0.7200
691,0.6950,0.7200
343,0.6950,0.7200
708,0.6950,0.7200
423,0.6950,0.7200
639,0.6950,0.7200
367,0.6950,0.7200
644,0.6950,0.7200
374,0.6950,0.7200
754,0.6950,0.7200
464,0.6950,0.7200
730,0.6950,0.7200
444,0.6950,0.7200
762,0.6950,0.7200
430,0.6950,0.7200
644,0.6950,0.7200
354,0.6950,0.7200
664,0.6950,0.7200
359,0.6950,0.7200
670,0.6950,0.7200
445,0.6950,0.7200
639,0.6950,0.7200
345,0.6950,0.7200
622,0.6950,0.7300
286,0.6950,0.7300
570,0.6950,0.7300
335,0.6950,0.7300
623,0.6950,0.7300
312,0.6950,0.7300
562,0.6950,0.7300
236,0.6950,0.7300
565,0.6950,0.7300
365,0.6950,0.7300
612,0.6900,0.7400
396,0.6900,0.7400
702,0.6900,0.7400
360,0.6900,0.7400
633,0.6900,0.7400
437,0.6900,0.7400
641,0.6900,0.7400
379,0.6900,0.7400
643,0.6900,0.7400
311,0.6900,0.7400
633,0.6850,0.7500
345,0.6850,0.7500
654,0.6850,0.7500
379,0.6850,0.7500
646,0.6850,0.7500
315,0.6850,0.7500
635,0.6850,0.7500
437,0.6850,0.7500
636,0.6850,0.7500
368,0.6850,0.7500
526,0.6850,0.7550
284,0.6850,0.7550
674,0.6850,0.7550
369,0.6850,0.7550
555,0.6850,0.7550
337,0.6850,0.7550
481,0.6850,0.7550
364,0.6850,0.7550
570,0.6850,0.7550
400,0.6850,0.7550
680,0.6850,0.7550
506,0.6850,0.7550
734,0.6850,0.7550
442,0.6850,0.7550
701,0.6850,0.7550
412,0.6850,0.7550
696,0.6850,0.7550
415,0.6850,0.7550
657,0.6850,0.7550
322,0.6850,0.7550
591,0.6850,0.7550
361,0.6850,0.7550
621,0.6850,0.7550
409,0.6850,0.7550
706,0.6850,0.7550
463,0.6850,0.7550
687,0.6850,0.7600
496,0.6850,0.7600
679,0.6850,0.7600
394,0.6850,0.7600
603,0.6850,0.7650
338,0.6850,0.7650
539,0.6850,0.7650
447,0.6850,0.7650
636,0.6850,0.7650
321,0.6850,0.7650
775,0.6850,0.7650
498,0.6850,0.7650
622,0.6850,0.7650
325,0.6850,0.7650
585,0.6850,0.7650
312,0.6850,0.7650
610,0.6850,0.7650
415,0.6850,0.7650
670,0.6850,0.7650
444,0.6850,0.7650
702,0.6850,0.7650
446,0.6850,0.7650
592,0.6850,0.7650
310,0.6850,0.7650
630,0.6800,0.7700
371,0.6800,0.7700
647,0.6800,0.7700
456,0.6800,0.7700
721,0.6800,0.7700
591,0.6800,0.7700
716,0.6800,0.7700
489,0.6800,0.7700
588,0.6800,0.7700
393,0.6800,0.7700
511,0.6800,0.7700
286,0.6800,0.7700
590,0.6800,0.7700
338,0.6800,0.7700
643,0.6800,0.7700
372,0.6800,0.7700
509,0.6800,0.7700
301,0.6800,0.7700
635,0.6800,0.7700
443,0.6800,0.7700
611,0.6800,0.7700
472,0.6800,0.7700
621,0.6800,0.7700
489,0.6800,0.7700
716,0.6800,0.7700
395,0.6800,0.7700
652,0.6800,0.7700
420,0.6800,0.7700
630,0.6800,0.7700
409,0.6800,0.7700
617,0.6800,0.7700
389,0.6800,0.7700
548,0.6800,0.7700
352,0.6800,0.7700
465,0.6800,0.7700
248,0.6800,0.7700
438,0.6800,0.7700
332,0.6800,0.7700
747,0.6800,0.7700
426,0.6800,0.7700
567,0.6800,0.7700
327,0.6800,0.7700
599,0.6800,0.7700
433,0.6800,0.7700
543,0.6800,0.7700
510,0.6800,0.7700
619,0.6800,0.7700
327,0.6800,0.7700
662,0.6800,0.7700
445,0.6800,0.7700
762,0.6800,0.7700
603,0.6800,0.7700
704,0.6800,0.7700
543,0.6800,0.7700
671,0.6800,0.7700
368,0.6800,0.7700
633,0.6800,0.7700
416,0.6800,0.7700
661,0.6800,0.7700
382,0.6800,0.7700
587,0.6800,0.7700
348,0.6800,0.7700
518,0.6800,0.7700
361,0.6800,0.7700
601,0.6800,0.7700
374,0.6800,0.7700
571,0.6800,0.7700
359,0.6800,0.7700
628,0.6800,0.7700
406,0.6800,0.7700
650,0.6800,0.7700
411,0.6800,0.7700
621,0.6800,0.7700
357,0.6800,0.7700
599,0.6800,0.7700
358,0.6800,0.7700
520,0.6800,0.7700
346,0.6800,0.7700
558,0.6800,0.7700
446,0.6800,0.7700
607,0.6800,0.7700
439,0.6800,0.7700
604,0.6800,0.7700
482,0.6800,0.7700
595,0.6800,0.7700
366,0.6800,0.7700
607,0.6800,0.7700
446,0.6800,0.7700
632,0.6800,0.7700
508,0.6800,0.7700
675,0.6800,0.7700
543,0.6800,0.7700
618,0.6800,0.7700
486,0.6800,0.7700
650,0.6800,0.7700
502,0.6800,0.7700
556,0.6800,0.7700
503,0.6800,0.7700
575,0.6800,0.7700
467,0.6800,0.7700
632,0.6800,0.7700
401,0.6800,0.7700
613,0.6800,0.7700
303,0.6800,0.7700
600,0.6800,0.7700
457,0.6800,0.7700
532,0.6800,0.7700
476,0.6800,0.7700
571,0.6800,0.7700
393,0.6800,0.7700
560,0.6800,0.7700
332,0.6800,0.7700
472,0.6800,0.7700
321,0.6800,0.7700
503,0.6800,0.7700
353,0.6800,0.7700
598,0.6800,0.7700
444,0.6800,0.7700
624,0.6800,0.7700
450,0.6800,0.7700
637,0.6800,0.7700
491,0.6800,0.7700
665,0.6800,0.7700
448,0.6800,0.7700
623,0.6800,0.7700
402,0.6800,0.7700
632,0.6800,0.7700
406,0.6800,0.7700
548,0.6800,0.7700
407,0.6800,0.7700
523,0.6800,0.7700
416,0.6800,0.7700
573,0.6800,0.7700
393,0.6800,0.7700
616,0.6800,0.7700
450,0.6800,0.7700
521,0.6800,0.7700
448,0.6800,0.7700
585,0.6800,0.7700
380,0.6800,0.7700
463,0.6800,0.7700
390,0.6800,0.7700
559,0.6800,0.7700
458,0.6800,0.7700
575,0.6800,0.7700
436,0.6800,0.7700
568,0.6800,0.7700
422,0.6800,0.7700
562,0.6800,0.7700
428,0.6800,0.7700
616,0.6800,0.7700
449,0.6800,0.7700
559,0.6800,0.7700
388,0.6800,0.7700
608,0.6800,0.7700
502,0.6800,0.7700
701,0.6800,0.7700
491,0.6800,0.7700
692,0.6800,0.7700
501,0.6800,0.7700
619,0.6800,0.7700
485,0.6800,0.7700
572,0.6800,0.7700
475,0.6800,0.7700
651,0.6800,0.7700
465,0.6800,0.7700
624,0.6800,0.7700
540,0.6800,0.7700
551,0.6800,0.7700
501,0.6800,0.7700
647,0.6800,0.7700
491,0.6800,0.7700
624,0.6800,0.7700
487,0.6800,0.7700
534,0.6800,0.7700
431,0.6800,0.7700
536,0.6800,0.7700
382,0.6800,0.7700
504,0.6800,0.7700
312,0.6800,0.7700
496,0.6800,0.7700
311,0.6800,0.7700
478,0.6800,0.7700
393,0.6800,0.7700
447,0.6800,0.7700
395,0.6800,0.7700
515,0.6800,0.7700
509,0.6800,0.7700
595,0.6800,0.7700
348,0.6800,0.7700
363,0.6800,0.7700
298,0.6800,0.7700
406,0.6800,0.7700
240,0.6800,0.7700
457,0.6800,0.7700
459,0.6800,0.7700
616,0.6800,0.7700
464,0.6800,0.7700
632,0.6800,0.7700
479,0.6800,0.7700
636,0.6800,0.7700
595,0.6800,0.7700
627,0.6800,0.7700
537,0.6800,0.7700
659,0.6800,0.7700
465,0.6800,0.7700
561,0.6800,0.7700
438,0.6800,0.7700
531,0.6800,0.7700
417,0.6800,0.7700
537,0.6800,0.7700
515,0.6800,0.7700
633,0.6800,0.7700
594,0.6800,0.7700
655,0.6800,0.7700
581,0.6800,0.7700
701,0.6800,0.7700
550,0.6800,0.7700
671,0.6800,0.7700
563,0.6800,0.7700
678,0.6800,0.7700
615,0.6800,0.7700
625,0.6800,0.7700
438,0.6800,0.7700
610,0.6800,0.7700
532,0.6800,0.7700
591,0.6800,0.7700
492,0.6800,0.7700
516,0.6800,0.7700
413,0.6800,0.7700
542,0.6800,0.7700
451,0.6800,0.7700
479,0.6800,0.7700
399,0.6800,0.7700
456,0.6800,0.7700
378,0.6800,0.7700
483,0.6800,0.7700
345,0.6800,0.7700
467,0.6800,0.7700
355,0.6800,0.7700
451,0.6800,0.7700
338,0.6800,0.7700
467,0.6800,0.7700
419,0.6800,0.7700
507,0.6800,0.7700
487,0.6800,0.7700
568,0.6800,0.7700
658,0.6800,0.7700
475,0.6800,0.7700
297,0.6800,0.7700
451,0.6800,0.7700
392,0.6800,0.7700
482,0.6800,0.7700
501,0.6800,0.7700
579,0.6800,0.7700
481,0.6800,0.7700
572,0.6800,0.7700
595,0.6800,0.7700
699,0.6800,0.7700
639,0.6800,0.7700
637,0.6750,0.7700
513,0.6750,0.7700
592,0.6750,0.7700
555,0.6750,0.7700
573,0.6750,0.7700
523,0.6750,0.7700
590,0.6750,0.7700
513,0.6750,0.7700
567,0.6750,0.7700
459,0.6750,0.7700
609,0.6750,0.7700
474,0.6750,0.7700
479,0.6750,0.7700
467,0.6750,0.7700
491,0.6750,0.7700
441,0.6750,0.7700
504,0.6750,0.7700
419,0.6750,0.7700
523,0.6750,0.7700
457,0.6750,0.7700
495,0.6750,0.7700
427,0.6750,0.7700
538,0.6750,0.7700
585,0.6750,0.7700
680,0.6750,0.7700
480,0.6750,0.7700
497,0.6750,0.7700
449,0.6750,0.7700
469,0.6750,0.7700
393,0.6750,0.7700
404,0.6750,0.7700
419,0.6750,0.7700
484,0.6750,0.7700
502,0.6750,0.7700
543,0.6750,0.7700
532,0.6750,0.7700
539,0.6750,0.7700
456,0.6750,0.7700
490,0.6750,0.7700
469,0.6750,0.7700
459,0.6700,0.7750
381,0.6700,0.7750
482,0.6700,0.7750
493,0.6700,0.7750
537,0.6700,0.7750
567,0.6700,0.7750
702,0.6650,0.7750
711,0.6650,0.7750
670,0.6650,0.7750
617,0.6650,0.7750
604,0.6650,0.7750
419,0.6650,0.7750
203,0.6650,0.7750
211,0.6650,0.7750
318,0.6650,0.7750
335,0.6650,0.7750
503,0.6650,0.7750
406,0.6650,0.7750
546,0.6650,0.7750
522,0.6650,0.7750
568,0.6650,0.7750
542,0.6650,0.7750
619,0.6650,0.7750
503,0.6650,0.7750
652,0.6650,0.7750
612,0.6650,0.7750
635,0.6650,0.7750
566,0.6650,0.7750
620,0.6650,0.7750
506,0.6650,0.7750
625,0.6650,0.7750
557,0.6650,0.7750
423,0.6650,0.7750
496,0.6650,0.7750
540,0.6650,0.7750
591,0.6650,0.7750
609,0.6650,0.7750
563,0.6650,0.7750
671,0.6650,0.7750
455,0.6650,0.7750
594,0.6650,0.7750
575,0.6650,0.7750
595,0.6650,0.7750
524,0.6650,0.7750
506,0.6650,0.7750
484,0.6650,0.7750
491,0.6650,0.7750
527,0.6650,0.7750
561,0.6650,0.7750
481,0.6650,0.7750
599,0.6650,0.7750
546,0.6650,0.7750
595,0.6650,0.7750
617,0.6650,0.7750
604,0.6650,0.7750
625,0.6650,0.7750
577,0.6650,0.7750
448,0.6650,0.7750
562,0.6650,0.7750
544,0.6650,0.7750
471,0.6650,0.7750
545,0.6650,0.7750
516,0.6650,0.7750
485,0.6650,0.7750
536,0.6650,0.7750
492,0.6650,0.7750
556,0.6650,0.7750
609,0.6650,0.7750
653,0.6650,0.7750
603,0.6650,0.7750
568,0.6650,0.7750
565,0.6650,0.7750
434,0.6650,0.7750
371,0.6650,0.7750
406,0.6650,0.7750
404,0.6650,0.7750
349,0.6650,0.7750
384,0.6650,0.7750
397,0.6650,0.7750
437,0.6650,0.7750
533,0.6650,0.7750
545,0.6650,0.7750
532,0.6650,0.7750
513,0.6650,0.7750
539,0.6650,0.7750
571,0.6650,0.7750
553,0.6650,0.7750
553,0.6650,0.7750
485,0.6650,0.7750
424,0.6650,0.7750
607,0.6650,0.7750
492,0.6650,0.7750
455,0.6650,0.7750
432,0.6650,0.7750
541,0.6650,0.7750
542,0.6650,0.7750
542,0.6650,0.7750
642,0.6650,0.7750
546,0.6650,0.7750
563,0.6650,0.7750
500,0.6650,0.7750
548,0.6650,0.7750
482,0.6650,0.7750
456,0.6650,0.7750
445,0.6650,0.7750
524,0.6650,0.7750
491,0.6650,0.7750
659,0.6650,0.7750
598,0.6650,0.7750
628,0.6650,0.7750
574,0.6700,0.7700
598,0.6700,0.7700
515,0.6700,0.7700
523,0.6700,0.7700
437,0.6700,0.7700
475,0.6700,0.7700
421,0.6700,0.7700
457,0.6700,0.7700
427,0.6700,0.7700
463,0.6700,0.7700
425,0.6750,0.7700
585,0.6750,0.7700
456,0.6750,0.7700
510,0.6750,0.7700
461,0.6750,0.7700
547,0.6750,0.7700
513,0.6750,0.7700
581,0.6750,0.7700
534,0.6750,0.7700
572,0.6750,0.7700
559,0.6750,0.7700
553,0.6750,0.7700
465,0.6750,0.7700
484,0.6750,0.7700
465,0.6750,0.7700
436,0.6750,0.7700
363,0.6750,0.7700
470,0.6750,0.7700
471,0.6750,0.7700
534,0.6750,0.7700
400,0.6750,0.7700
524,0.6750,0.7700
394,0.6750,0.7700
563,0.6750,0.7700
412,0.6750,0.7700
607,0.6750,0.7700
543,0.6750,0.7700
542,0.6750,0.7700
445,0.6750,0.7700
408,0.6750,0.7700
403,0.6750,0.7700
516,0.6750,0.7700
561,0.6750,0.7700
659,0.6750,0.7700
580,0.6750,0.7700
609,0.6750,0.7700
525,0.6750,0.7700
575,0.6750,0.7700
450,0.6750,0.7700
468,0.6750,0.7700
391,0.6750,0.7700
239,0.6750,0.7700
112,0.6750,0.7700
0,0.6750,0.7700
0,0.6750,0.7700
0,0.6750,0.7700
0,0.6750,0.7700
0,0.6750,0.7700
0,0.6750,0.7700
0,0.6750,0.7700
263,0.6800,0.7700
486,0.6800,0.7700
568,0.6800,0.7700
803,0.6800,0.7700
813,0.6800,0.7700
919,0.6800,0.7700
1018,0.6800,0.7700
964,0.6800,0.7700
899,0.6800,0.7700
958,0.6800,0.7700
945,0.6800,0.7700
928,0.6800,0.7700
853,0.6800,0.7700
954,0.6800,0.7700
932,0.6800,0.7700
822,0.6800,0.7700
824,0.6800,0.7700
925,0.6800,0.7700
851,0.6800,0.7700
890,0.6800,0.7700
846,0.6800,0.7650
851,0.6800,0.7650
709,0.6800,0.7650
661,0.6800,0.7650
620,0.6800,0.7650
639,0.6800,0.7650
545,0.6800,0.7650
630,0.6800,0.7650
425,0.6800,0.7650
567,0.6800,0.7650
611,0.6800,0.7650
585,0.6800,0.7650
455,0.6800,0.7650
512,0.6800,0.7650
468,0.6800,0.7650
559,0.6800,0.7650
488,0.6800,0.7650
649,0.6800,0.7650
549,0.6800,0.7650
555,0.6800,0.7650
472,0.6850,0.7650
573,0.6850,0.7650
515,0.6850,0.7650
564,0.6850,0.7650
484,0.6850,0.7650
592,0.6850,0.7650
483,0.6850,0.7650
476,0.6850,0.7650
433,0.6850,0.7650
555,0.6850,0.7650
390,0.6850,0.7650
459,0.6850,0.7650
438,0.6850,0.7650
376,0.6850,0.7650
417,0.6850,0.7650
523,0.6850,0.7650
479,0.6850,0.7650
519,0.6850,0.7650
380,0.6850,0.7650
535,0.6850,0.7650
409,0.6850,0.7650
495,0.6850,0.7650
391,0.6850,0.7650
515,0.6850,0.7650
511,0.6850,0.7650
625,0.6850,0.7650
392,0.6850,0.7650
572,0.6850,0.7650
424,0.6850,0.7650
602,0.6850,0.7650
568,0.6900,0.7650
602,0.6900,0.7650
455,0.6900,0.7650
670,0.6900,0.7650
496,0.6900,0.7650
656,0.6900,0.7650
549,0.6900,0.7650
600,0.6900,0.7650
447,0.6900,0.7650
589,0.6900,0.7650
492,0.6900,0.7650
531,0.6900,0.7650
435,0.6900,0.7650
467,0.6900,0.7650
299,0.6900,0.7650
584,0.6900,0.7650
409,0.6900,0.7650
600,0.6900,0.7650
348,0.6900,0.7650
515,0.6900,0.7650
524,0.6900,0.7650
667,0.6900,0.7650
556,0.6900,0.7650
678,0.6900,0.7650
510,0.6900,0.7650
606,0.6900,0.7650
421,0.6900,0.7650
522,0.6900,0.7650
519,0.6900,0.7650
574,0.6900,0.7650
468,0.6900,0.7600
543,0.6900,0.7600
440,0.6900,0.7600
539,0.6900,0.7600
450,0.6900,0.7600
529,0.6900,0.7600
342,0.6900,0.7600
465,0.6900,0.7600
352,0.6900,0.7600
426,0.6900,0.7600
445,0.6900,0.7600
625,0.6900,0.7600
419,0.6900,0.7600
662,0.6900,0.7600
571,0.6900,0.7600
642,0.6900,0.7600
481,0.6900,0.7600
634,0.6900,0.7600
411,0.6900,0.7600
531,0.6900,0.7600
341,0.6900,0.7600
459,0.6900,0.7600
434,0.6900,0.7600
603,0.6900,0.7600
415,0.6900,0.7600
573,0.6900,0.7600
406,0.6900,0.7600
598,0.6900,0.7600
488,0.6900,0.7600
590,0.6900,0.7600
459,0.6900,0.7600
559,0.6900,0.7600
474,0.6900,0.7600
465,0.6900,0.7600
380,0.6900,0.7600
483,0.6900,0.7600
391,0.6900,0.7600
536,0.6900,0.7600
428,0.6900,0.7600
612,0.6900,0.7600
438,0.6900,0.7600
520,0.6900,0.7600
536,0.6900,0.7600
783,0.6900,0.7600
744,0.6900,0.7600
835,0.6900,0.7600
702,0.6900,0.7600
762,0.6900,0.7600
576,0.6900,0.7600
770,0.6900,0.7600
539,0.6900,0.7600
647,0.6900,0.7600
545,0.6900,0.7600
587,0.6900,0.7600
425,0.6900,0.7600
535,0.6900,0.7600
448,0.6900,0.7600
492,0.6900,0.7600
443,0.6900,0.7600
462,0.6900,0.7600
378,0.6900,0.7600
544,0.6900,0.7600
385,0.6900,0.7600
532,0.6900,0.7600
332,0.6900,0.7600
551,0.6900,0.7600
402,0.6900,0.7600
515,0.6900,0.7600
391,0.6900,0.7600
477,0.6900,0.7600
304,0.6900,0.7600
490,0.6900,0.7600
378,0.6900,0.7600
413,0.6900,0.7600
421,0.6900,0.7600
571,0.6900,0.7600
475,0.6900,0.7600
517,0.6900,0.7600
480,0.6900,0.7600
534,0.6900,0.7600
438,0.6900,0.7550
555,0.6900,0.7550
472,0.6900,0.7550
581,0.6900,0.7550
486,0.6900,0.7550
570,0.6900,0.7550
503,0.6900,0.7550
596,0.6900,0.7550
391,0.6900,0.7550
573,0.6900,0.7550
451,0.6900,0.7550
579,0.6900,0.7550
391,0.6900,0.7550
503,0.6900,0.7550
393,0.6900,0.7550
674,0.6900,0.7550
525,0.6900,0.7550
622,0.6900,0.7550
541,0.6900,0.7550
689,0.6900,0.7550
566,0.6850,0.7550
725,0.6850,0.7550
422,0.6850,0.7550
350,0.6850,0.7550
307,0.6850,0.7550
369,0.6850,0.7550
338,0.6850,0.7550
535,0.6850,0.7550
444,0.6850,0.7550
544,0.6850,0.7550
427,0.6850,0.7550
486,0.6850,0.7550
343,0.6850,0.7550
459,0.6850,0.7550
423,0.6850,0.7550
424,0.6850,0.7550
338,0.6850,0.7550
482,0.6850,0.7550
368,0.6850,0.7550
775,0.6850,0.7550
267,0.6850,0.7550
130,0.6850,0.7550
0,0.6850,0.7550
94,0.6850,0.7550
206,0.6850,0.7550
391,0.6850,0.7550
330,0.6850,0.7550
466,0.6850,0.7550
372,0.6850,0.7550
599,0.6850,0.7550
446,0.6800,0.7550
632,0.6800,0.7550
480,0.6800,0.7550
594,0.6800,0.7550
506,0.6800,0.7550
626,0.6800,0.7550
419,0.6800,0.7550
577,0.6800,0.7550
333,0.6800,0.7550
573,0.6800,0.7550
419,0.6800,0.7550
615,0.6800,0.7550
384,0.6800,0.7550
535,0.6800,0.7550
440,0.6800,0.7550
604,0.6800,0.7550
409,0.6800,0.7550
614,0.6800,0.7550
503,0.6800,0.7550
620,0.6800,0.7550
515,0.6800,0.7550
605,0.6800,0.7550
458,0.6800,0.7550
478,0.6800,0.7550
358,0.6800,0.7550
587,0.6800,0.7550
404,0.6800,0.7550
708,0.6800,0.7550
531,0.6800,0.7550
695,0.6800,0.7550
542,0.6800,0.7550
622,0.6800,0.7550
525,0.6800,0.7550
671,0.6800,0.7550
376,0.6800,0.7550
577,0.6800,0.7550
424,0.6800,0.7550
513,0.6800,0.7550
448,0.6800,0.7550
524,0.6800,0.7550
472,0.6800,0.7550
631,0.6800,0.7550
457,0.6800,0.7550
601,0.6800,0.7550
475,0.6800,0.7550
644,0.6800,0.7550
388,0.6800,0.7550
556,0.6800,0.7550
433,0.6800,0.7550
582,0.6800,0.7550
446,0.6750,0.7550
548,0.6750,0.7550
430,0.6750,0.7550
626,0.6750,0.7550
423,0.6750,0.7550
493,0.6750,0.7550
340,0.6750,0.7550
465,0.6750,0.7550
307,0.6750,0.7550
624,0.6750,0.7550
499,0.6750,0.7550
660,0.6750,0.7550
555,0.6750,0.7550
723,0.6750,0.7550
592,0.6750,0.7550
797,0.6750,0.7550
547,0.6750,0.7550
729,0.6750,0.7550
553,0.6750,0.7550
721,0.6750,0.7550
523,0.6750,0.7550
650,0.6750,0.7550
578,0.6750,0.7550
778,0.6750,0.7550
679,0.6750,0.7550
771,0.6750,0.7550
491,0.6750,0.7550
587,0.6750,0.7550
453,0.6750,0.7550
615,0.6750,0.7550
455,0.6750,0.7550
618,0.6750,0.7550
490,0.6750,0.7550
615,0.6750,0.7550
442,0.6750,0.7550
518,0.6750,0.7550
360,0.6750,0.7550
551,0.6750,0.7550
448,0.6750,0.7550
607,0.6750,0.7550
466,0.6750,0.7550
614,0.6750,0.7550
459,0.6750,0.7550
523,0.6750,0.7550
324,0.6750,0.7550
484,0.6750,0.7550
382,0.6750,0.7550
511,0.6750,0.7550
384,0.6750,0.7550
608,0.6750,0.7550
439,0.6750,0.7600
549,0.6750,0.7600
346,0.6750,0.7600
479,0.6750,0.7600
414,0.6750,0.7600
588,0.6750,0.7600
396,0.6750,0.7600
529,0.6750,0.7600
348,0.6750,0.7600
584,0.6750,0.7600
565,0.6700,0.7600
527,0.6700,0.7600
345,0.6700,0.7600
448,0.6700,0.7600
388,0.6700,0.7600
628,0.6700,0.7600
439,0.6700,0.7600
596,0.6700,0.7600
454,0.6700,0.7600
536,0.6700,0.7600
462,0.6700,0.7600
679,0.6700,0.7600
391,0.6700,0.7600
590,0.6700,0.7600
487,0.6700,0.7600
590,0.6700,0.7600
391,0.6700,0.7600
562,0.6700,0.7600
337,0.6700,0.7600
542,0.6700,0.7600
568,0.6700,0.7650
520,0.6700,0.7650
309,0.6700,0.7650
493,0.6700,0.7650
397,0.6700,0.7650
578,0.6700,0.7650
454,0.6700,0.7650
624,0.6700,0.7650
416,0.6700,0.7650
632,0.6700,0.7650
467,0.6700,0.7650
538,0.6700,0.7650
327,0.6700,0.7650
544,0.6700,0.7650
342,0.6700,0.7650
555,0.6700,0.7650
380,0.6700,0.7650
666,0.6700,0.7650
450,0.6700,0.7650
663,0.6700,0.7650
444,0.6700,0.7650
695,0.6700,0.7650
607,0.6700,0.7650
717,0.6700,0.7650
361,0.6700,0.7650
576,0.6700,0.7650
468,0.6700,0.7650
605,0.6700,0.7650
403,0.6700,0.7650
497,0.6700,0.7650
383,0.6700,0.7700
574,0.6700,0.7700
320,0.6700,0.7700
499,0.6700,0.7700
286,0.6700,0.7700
557,0.6700,0.7700
265,0.6700,0.7700
504,0.6700,0.7700
386,0.6700,0.7700
613,0.6700,0.7700
359,0.6700,0.7700
594,0.6700,0.7700
491,0.6700,0.7700
648,0.6700,0.7700
466,0.6700,0.7700
630,0.6700,0.7700
483,0.6700,0.7700
744,0.6700,0.7700
565,0.6700,0.7700
760,0.6700,0.7700
542,0.6700,0.7700
715,0.6700,0.7700
579,0.6700,0.7700
763,0.6700,0.7700
467,0.6700,0.7700
640,0.6700,0.7700
403,0.6700,0.7700
684,0.6700,0.7700
467,0.6700,0.7700
622,0.6700,0.7700
366,0.6700,0.7750
716,0.6700,0.7750
489,0.6700,0.7750
719,0.6700,0.7750
469,0.6700,0.7750
624,0.6700,0.7750
448,0.6700,0.7750
638,0.6700,0.7750
476,0.6700,0.7750
519,0.6700,0.7750
556,0.6700,0.7750
593,0.6700,0.7750
525,0.6700,0.7750
652,0.6700,0.7750
514,0.6700,0.7750
732,0.6700,0.7750
636,0.6700,0.7750
818,0.6700,0.7750
492,0.6700,0.7750
762,0.6700,0.7750
556,0.6700,0.7800
752,0.6700,0.7800
360,0.6700,0.7800
720,0.6700,0.7800
533,0.6700,0.7800
756,0.6700,0.7800
409,0.6700,0.7800
597,0.6700,0.7800
420,0.6700,0.7800
472,0.6700,0.7800
193,0.6700,0.7800
423,0.6700,0.7800
224,0.6700,0.7800
411,0.6700,0.7800
374,0.6700,0.7800
686,0.6700,0.7800
426,0.6700,0.7800
566,0.6700,0.7800
359,0.6700,0.7800
539,0.6700,0.7800
370,0.6700,0.7800
524,0.6700,0.7800
226,0.6700,0.7800
576,0.6700,0.7800
378,0.6700,0.7800
565,0.6700,0.7800
342,0.6700,0.7800
492,0.6700,0.7800
433,0.6700,0.7800
648,0.6700,0.7800
350,0.6700,0.7800
644,0.6700,0.7800
374,0.6700,0.7800
613,0.6700,0.7800
308,0.6700,0.7800
595,0.6700,0.7800
329,0.6700,0.7800
536,0.6700,0.7800
377,0.6700,0.7800
528,0.6700,0.7800
317,0.6700,0.7800
581,0.6700,0.7800
291,0.6700,0.7800
536,0.6700,0.7800
189,0.6700,0.7800
590,0.6700,0.7800
295,0.6700,0.7800
627,0.6700,0.7800
317,0.6700,0.7800
711,0.6700,0.7800
492,0.6600,0.7800
690,0.6600,0.7800
441,0.6600,0.7800
706,0.6600,0.7800
489,0.6600,0.7800
671,0.6600,0.7800
493,0.6600,0.7800
766,0.6600,0.7800
502,0.6600,0.7800
727,0.6600,0.7800
520,0.6550,0.7850
740,0.6550,0.7850
528,0.6550,0.7850
733,0.6550,0.7850
412,0.6550,0.7850
624,0.6550,0.7850
383,0.6550,0.7850
613,0.6550,0.7850
329,0.6550,0.7850
496,0.6550,0.7850
376,0.6550,0.7850
639,0.6550,0.7850
361,0.6550,0.7850
533,0.6550,0.7850
298,0.6550,0.7850
527,0.6550,0.7850
334,0.6550,0.7850
537,0.6550,0.7850
415,0.6550,0.7850
639,0.6550,0.7850
286,0.6550,0.7850
553,0.6550,0.7850
307,0.6550,0.7850
574,0.6550,0.7850
315,0.6550,0.7850
477,0.6550,0.7850
288,0.6550,0.7850
490,0.6550,0.7850
197,0.6550,0.7850
502,0.6550,0.7850
168,0.6600,0.7850
523,0.6600,0.7850
383,0.6600,0.7850
669,0.6600,0.7850
488,0.6600,0.7850
758,0.6600,0.7850
448,0.6600,0.7850
558,0.6600,0.7850
317,0.6600,0.7850
599,0.6600,0.7850
286,0.6600,0.7850
557,0.6600,0.7850
360,0.6600,0.7850
686,0.6600,0.7850
341,0.6600,0.7850
626,0.6600,0.7850
331,0.6600,0.7850
621,0.6600,0.7850
392,0.6600,0.7850
643,0.6600,0.7850
387,0.6600,0.7850
643,0.6600,0.7850
312,0.6600,0.7850
649,0.6600,0.7850
341,0.6600,0.7850
693,0.6600,0.7850
425,0.6600,0.7850
603,0.6600,0.7850
321,0.6600,0.7850
627,0.6600,0.7850
504,0.6600,0.7850
759,0.6600,0.7850
554,0.6600,0.7850
775,0.6600,0.7850
499,0.6600,0.7850
654,0.6600,0.7850
284,0.6600,0.7850
543,0.6600,0.7850
401,0.6600,0.7850
659,0.6600,0.7850
376,0.6600,0.7850
666,0.6600,0.7850
307,0.6600,0.7850
921,0.6600,0.7850
47,0.6600,0.7850
317,0.6600,0.7850
0,0.6600,0.7850
223,0.6600,0.7850
0,0.6600,0.7850
366,0.6600,0.7850
126,0.6600,0.7850
477,0.6600,0.7850
152,0.6600,0.7850
615,0.6600,0.7850
337,0.6600,0.7850
676,0.6600,0.7850
445,0.6600,0.7850
625,0.6600,0.7850
349,0.6600,0.7850
581,0.6600,0.7850
289,0.6550,0.7850
602,0.6550,0.7850
262,0.6550,0.7850
577,0.6550,0.7850
337,0.6550,0.7850
638,0.6550,0.7850
412,0.6550,0.7850
672,0.6550,0.7850
441,0.6550,0.7850
684,0.6550,0.7850
451,0.6500,0.7850
714,0.6500,0.7850
394,0.6500,0.7850
664,0.6500,0.7850
356,0.6500,0.7850
613,0.6500,0.7850
431,0.6500,0.7850
719,0.6500,0.7850
414,0.6500,0.7850
638,0.6500,0.7850
544,0.6500,0.7850
770,0.6500,0.7850
400,0.6500,0.7850
749,0.6500,0.7850
336,0.6500,0.7850
780,0.6500,0.7850
521,0.6500,0.7850
735,0.6500,0.7850
476,0.6500,0.7850
733,0.6500,0.7850
502,0.6500,0.7850
774,0.6500,0.7850
342,0.6500,0.7850
700,0.6500,0.7850
371,0.6500,0.7850
744,0.6500,0.7850
420,0.6500,0.7850
751,0.6500,0.7850
380,0.6500,0.7850
672,0.6500,0.7850
268,0.6500,0.7850
591,0.6500,0.7850
412,0.6500,0.7850
671,0.6500,0.7850
379,0.6500,0.7850
766,0.6500,0.7850
358,0.6500,0.7850
625,0.6500,0.7850
368,0.6500,0.7850
670,0.6500,0.7850
423,0.6500,0.7850
705,0.6500,0.7850
444,0.6500,0.7850
728,0.6500,0.7850
372,0.6500,0.7850
725,0.6500,0.7850
423,0.6500,0.7850
732,0.6500,0.7850
435,0.6500,0.7850
616,0.6500,0.7850
324,0.6500,0.7850
739,0.6500,0.7850
404,0.6500,0.7850
687,0.6500,0.7850
306,0.6500,0.7850
726,0.6500,0.7850
384,0.6500,0.7850
696,0.6500,0.7850
404,0.6500,0.7850
671,0.6500,0.7850
345,0.6500,0.7850
684,0.6500,0.7850
449,0.6500,0.7850
750,0.6500,0.7850
436,0.6500,0.7850
864,0.6500,0.7850
420,0.6500,0.7850
732,0.6500,0.7850
424,0.6500,0.7850
665,0.6500,0.7850
423,0.6500,0.7850
752,0.6500,0.7850
451,0.6500,0.7850
752,0.6500,0.7850
431,0.6500,0.7850
741,0.6500,0.7850
324,0.6500,0.7850
598,0.6500,0.7850
353,0.6500,0.7850
542,0.6500,0.7850
366,0.6500,0.7850
632,0.6500,0.7850
247,0.6500,0.7850
677,0.6500,0.7850
268,0.6500,0.7850
617,0.6500,0.7850
360,0.6500,0.7850
730,0.6500,0.7850
455,0.6500,0.7850
718,0.6500,0.7850
402,0.6500,0.7850
671,0.6500,0.7850
460,0.6500,0.7850
742,0.6500,0.7850
422,0.6500,0.7850
700,0.6500,0.7850
424,0.6500,0.7850
812,0.6500,0.7850
463,0.6500,0.7850
685,0.6500,0.7850
325,0.6500,0.7850
685,0.6500,0.7850
390,0.6500,0.7850
726,0.6500,0.7850
371,0.6500,0.7850
696,0.6500,0.7850
371,0.6500,0.7850
684,0.6500,0.7850
365,0.6500,0.7850
620,0.6500,0.7850
323,0.6500,0.7850
577,0.6500,0.7850
386,0.6500,0.7850
629,0.6500,0.7850
348,0.6500,0.7850
657,0.6500,0.7850
280,0.6500,0.7850
710,0.6500,0.7850
309,0.6500,0.7850
584,0.6500,0.7850
298,0.6500,0.7850
688,0.6500,0.7850
280,0.6500,0.7850
659,0.6500,0.7850
313,0.6500,0.7850
620,0.6500,0.7850
284,0.6500,0.7850
700,0.6500,0.7850
341,0.6500,0.7850
654,0.6500,0.7850
310,0.6500,0.7850
643,0.6500,0.7850
220,0.6500,0.7850
635,0.6500,0.7850
214,0.6500,0.7850
596,0.6500,0.7850
236,0.6500,0.7850
627,0.6500,0.7850
367,0.6500,0.7850
618,0.6500,0.7850
312,0.6500,0.7850
604,0.6500,0.7850
385,0.6500,0.7850
638,0.6500,0.7850
251,0.6500,0.7850
572,0.6500,0.7850
286,0.6500,0.7850
620,0.6500,0.7850
329,0.6500,0.7850
664,0.6500,0.7850
418,0.6550,0.8050
737,0.6550,0.8050
312,0.6550,0.8050
730,0.6550,0.8050
385,0.6550,0.8050
637,0.6550,0.8050
300,0.6550,0.8050
587,0.6550,0.8050
267,0.6550,0.8050
679,0.6550,0.8050
268,0.6550,0.8050
647,0.6550,0.8050
352,0.6550,0.8050
755,0.6550,0.8050
415,0.6550,0.8050
799,0.6550,0.8050
446,0.6550,0.8050
684,0.6550,0.8050
347,0.6550,0.8050
719,0.6550,0.8050
418,0.6550,0.8050
779,0.6550,0.8050
346,0.6550,0.8050
672,0.6550,0.8050
278,0.6550,0.8050
606,0.6550,0.8050
297,0.6550,0.8050
594,0.6550,0.8050
443,0.6550,0.8050
836,0.6550,0.8050
475,0.6550,0.8050
734,0.6550,0.8050
369,0.6550,0.8050
707,0.6550,0.8050
330,0.6550,0.8050
600,0.6550,0.8050
285,0.6550,0.8050
612,0.6550,0.8050
261,0.6550,0.8050
663,0.6550,0.8050
259,0.6550,0.8050
611,0.6550,0.8050
255,0.6550,0.8050
624,0.6550,0.8050
226,0.6550,0.8050
552,0.6550,0.8050
252,0.6550,0.8050
730,0.6550,0.8050
362,0.6550,0.8050
724,0.6550,0.8050
372,0.6550,0.8050
690,0.6550,0.8050
284,0.6550,0.8050
645,0.6550,0.8050
363,0.6550,0.8050
710,0.6550,0.8050
497,0.6550,0.8050
737,0.6550,0.8050
478,0.6550,0.8050
871,0.6550,0.8050
419,0.6600,0.8050
678,0.6600,0.8050
408,0.6600,0.8050
756,0.6600,0.8050
390,0.6600,0.8050
819,0.6600,0.8050
364,0.6600,0.8050
789,0.6600,0.8050
388,0.6600,0.8050
687,0.6600,0.8050
344,0.6650,0.8050
678,0.6650,0.8050
280,0.6650,0.8050
649,0.6650,0.8050
270,0.6650,0.8050
601,0.6650,0.8050
333,0.6650,0.8050
668,0.6650,0.8050
298,0.6650,0.8050
593,0.6650,0.8050
254,0.6700,0.8000
695,0.6700,0.8000
366,0.6700,0.8000
657,0.6700,0.8000
301,0.6700,0.8000
720,0.6700,0.8000
504,0.6700,0.8000
856,0.6700,0.8000
543,0.6700,0.8000
842,0.6700,0.8000
422,0.6700,0.7950
788,0.6700,0.7950
344,0.6700,0.7950
729,0.6700,0.7950
407,0.6700,0.7950
732,0.6700,0.7950
284,0.6700,0.7950
617,0.6700,0.7950
344,0.6700,0.7950
665,0.6700,0.7950
360,0.6700,0.7900
748,0.6700,0.7900
279,0.6700,0.7900
672,0.6700,0.7900
314,0.6700,0.7900
640,0.6700,0.7900
349,0.6700,0.7900
621,0.6700,0.7900
204,0.6700,0.7900
582,0.6700,0.7900
291,0.6700,0.7850
697,0.6700,0.7850
253,0.6700,0.7850
639,0.6700,0.7850
280,0.6700,0.7850
668,0.6700,0.7850
328,0.6700,0.7850
602,0.6700,0.7850
174,0.6700,0.7850
612,0.6700,0.7850
205,0.6700,0.7850
611,0.6700,0.7850
259,0.6700,0.7850
584,0.6700,0.7850
240,0.6700,0.7850
587,0.6700,0.7850
258,0.6700,0.7850
617,0.6700,0.7850
244,0.6700,0.7850
553,0.6700,0.7850
73,0.6650,0.7850
598,0.6650,0.7850
345,0.6650,0.7850
741,0.6650,0.7850
279,0.6650,0.7850
762,0.6650,0.7850
377,0.6650,0.7850
762,0.6650,0.7850
358,0.6650,0.7850
625,0.6650,0.7850
336,0.6600,0.7850
697,0.6600,0.7850
309,0.6600,0.7850
665,0.6600,0.7850
347,0.6600,0.7850
667,0.6600,0.7850
317,0.6600,0.7850
743,0.6600,0.7850
287,0.6600,0.7850
710,0.6600,0.7850
370,0.6600,0.7850
668,0.6600,0.7850
305,0.6600,0.7850
652,0.6600,0.7850
360,0.6600,0.7850
827,0.6600,0.7850
323,0.6600,0.7850
591,0.6600,0.7850
380,0.6600,0.7850
774,0.6600,0.7850
389,0.6550,0.7850
686,0.6550,0.7850
301,0.6550,0.7850
613,0.6550,0.7850
275,0.6550,0.7850
668,0.6550,0.7850
306,0.6550,0.7850
739,0.6550,0.7850
297,0.6550,0.7850
716,0.6550,0.7850
335,0.6550,0.7850
780,0.6550,0.7850
391,0.6550,0.7850
782,0.6550,0.7850
354,0.6550,0.7850
710,0.6550,0.7850
274,0.6550,0.7850
708,0.6550,0.7850
247,0.6550,0.7850
742,0.6550,0.7850
447,0.6500,0.7850
712,0.6500,0.7850
388,0.6500,0.7850
712,0.6500,0.7850
282,0.6500,0.7850
696,0.6500,0.7850
334,0.6500,0.7850
786,0.6500,0.7850
381,0.6500,0.7850
698,0.6500,0.7850
368,0.6500,0.7850
764,0.6500,0.7850
485,0.6500,0.7850
844,0.6500,0.7850
550,0.6500,0.7850
839,0.6500,0.7850
449,0.6500,0.7850
820,0.6500,0.7850
380,0.6500,0.7850
679,0.6500,0.7850
305,0.6500,0.7850
719,0.6500,0.7850
349,0.6500,0.7850
703,0.6500,0.7850
313,0.6500,0.7850
630,0.6500,0.7850
311,0.6500,0.7850
658,0.6500,0.7850
158,0.6500,0.7850
599,0.6500,0.7850
296,0.6500,0.7850
609,0.6500,0.7850
244,0.6500,0.7850
784,0.6500,0.7850
339,0.6500,0.7850
729,0.6500,0.7850
358,0.6500,0.7850
620,0.6500,0.7850
243,0.6500,0.7850
782,0.6500,0.7850
327,0.6500,0.7850
728,0.6500,0.7850
361,0.6500,0.7850
647,0.6500,0.7850
382,0.6500,0.7850
727,0.6500,0.7850
335,0.6500,0.7850
679,0.6500,0.7850
214,0.6500,0.7850
662,0.6500,0.7850
338,0.6500,0.7850
662,0.6500,0.7850
236,0.6500,0.7850
652,0.6500,0.7850
297,0.6500,0.7850
572,0.6500,0.7850
213,0.6500,0.7850
655,0.6500,0.7850
282,0.6500,0.7850
683,0.6500,0.7850
211,0.6500,0.7850
693,0.6500,0.7850
269,0.6500,0.7850
681,0.6500,0.7850
463,0.6500,0.7850
792,0.6500,0.7850
469,0.6500,0.7850
807,0.6500,0.7850
482,0.6500,0.7850
785,0.6500,0.7850
479,0.6500,0.7850
868,0.6500,0.7850
433,0.6500,0.7850
787,0.6500,0.7850
337,0.6500,0.7850
955,0.6500,0.7850
450,0.6500,0.7850
828,0.6500,0.7850
457,0.6500,0.7850
867,0.6500,0.7850
393,0.6500,0.7850
841,0.6500,0.7850
351,0.6500,0.7850
793,0.6500,0.7850
403,0.6500,0.7850
759,0.6500,0.7850
243,0.6500,0.7850
704,0.6500,0.7850
372,0.6500,0.7850
727,0.6500,0.7850
307,0.6500,0.7900
765,0.6500,0.7900
338,0.6500,0.7900
826,0.6500,0.7900
369,0.6500,0.7900
723,0.6500,0.7900
361,0.6500,0.7900
837,0.6500,0.7900
375,0.6500,0.7900
810,0.6500,0.7900
391,0.6500,0.7900
680,0.6500,0.7900
302,0.6500,0.7900
683,0.6500,0.7900
279,0.6500,0.7900
713,0.6500,0.7900
335,0.6500,0.7900
904,0.6500,0.7900
306,0.6500,0.7900
670,0.6500,0.7900
195,0.6500,0.7950
600,0.6500,0.8000
250,0.6500,0.8000
655,0.6500,0.8000
274,0.6500,0.8000
624,0.6500,0.8000
175,0.6500,0.8000
568,0.6500,0.8000
126,0.6500,0.8000
582,0.6500,0.8000
232,0.6550,0.8000
687,0.6550,0.8000
252,0.6550,0.8000
654,0.6550,0.8000
248,0.6550,0.8000
619,0.6550,0.8000
211,0.6550,0.8000
551,0.6550,0.8000
180,0.6550,0.8000
584,0.6550,0.8000
283,0.6550,0.8000
711,0.6550,0.8000
359,0.6550,0.8000
740,0.6550,0.8000
352,0.6550,0.8000
668,0.6550,0.8000
334,0.6550,0.8000
726,0.6550,0.8050
270,0.6550,0.8050
743,0.6550,0.8050
239,0.6600,0.8050
793,0.6600,0.8050
274,0.6600,0.8050
787,0.6600,0.8050
330,0.6600,0.8050
706,0.6600,0.8050
252,0.6600,0.8050
637,0.6600,0.8050
237,0.6600,0.8050
632,0.6600,0.8050
347,0.6700,0.8100
630,0.6700,0.8100
332,0.6700,0.8100
736,0.6700,0.8100
384,0.6700,0.8100
748,0.6700,0.8100
358,0.6700,0.8100
636,0.6700,0.8100
247,0.6700,0.8100
768,0.6700,0.8100
317,0.6800,0.8150
711,0.6800,0.8150
275,0.6800,0.8150
634,0.6800,0.8150
148,0.6800,0.8150
689,0.6800,0.8150
262,0.6800,0.8150
658,0.6850,0.8150
198,0.6850,0.8150
535,0.6850,0.8150
195,0.6900,0.8150
633,0.6900,0.8150
240,0.6900,0.8150
603,0.6900,0.8150
321,0.6900,0.8150
837,0.6900,0.8150
375,0.6900,0.8150
679,0.6900,0.8150
297,0.6900,0.8150
633,0.6900,0.8150
270,0.6950,0.8150
585,0.6950,0.8150
285,0.6950,0.8150
732,0.6950,0.8150
229,0.6950,0.8150
620,0.6950,0.8150
354,0.6950,0.8150
695,0.6950,0.8150
286,0.6950,0.8150
789,0.6950,0.8150
211,0.6950,0.8150
742,0.6950,0.8150
258,0.6950,0.8150
704,0.6950,0.8150
336,0.6950,0.8150
706,0.6950,0.8150
281,0.6950,0.8150
728,0.6950,0.8150
415,0.6950,0.8150
695,0.6950,0.8150
360,0.6950,0.8150
754,0.6950,0.8150
424,0.6950,0.8150
812,0.6950,0.8150
415,0.6950,0.8150
709,0.6950,0.8150
504,0.6950,0.8150
580,0.6950,0.8150
22,0.6950,0.8150
299,0.6950,0.8150
0,0.7000,0.8150
388,0.7000,0.8150
71,0.7000,0.8150
624,0.7000,0.8150
197,0.7000,0.8150
592,0.7000,0.8150
218,0.7000,0.8150
703,0.7000,0.8150
287,0.7000,0.8150
776,0.7000,0.8150
363,0.7000,0.8150
759,0.7000,0.8150
439,0.7000,0.8150
774,0.7000,0.8150
394,0.7000,0.8150
844,0.7000,0.8150
444,0.7000,0.8150
826,0.7000,0.8150
393,0.7000,0.8150
785,0.7000,0.8150
326,0.7000,0.8150
774,0.7000,0.8150
304,0.7000,0.8150
711,0.7000,0.8150
449,0.7000,0.8150
789,0.7000,0.8150
335,0.7000,0.8150
812,0.7000,0.8150
304,0.7000,0.8150
666,0.7000,0.8150
341,0.7000,0.8150
665,0.7000,0.8150
245,0.7000,0.8150
671,0.7000,0.8150
198,0.7000,0.8150
611,0.7000,0.8150
227,0.7000,0.8150
716,0.7000,0.8150
261,0.7000,0.8150
706,0.7000,0.8150
341,0.7000,0.8150
829,0.7000,0.8150
367,0.7000,0.8150
777,0.7000,0.8150
246,0.7000,0.8150
758,0.7000,0.8150
247,0.7000,0.8150
675,0.7000,0.8150
396,0.7000,0.8150
816,0.7000,0.8150
433,0.7000,0.8150
811,0.7000,0.8150
294,0.7000,0.8150
697,0.7000,0.8150
290,0.7000,0.8150
750,0.7000,0.8150
252,0.7000,0.8150
722,0.7000,0.8150
286,0.7000,0.8150
844,0.7000,0.8150
343,0.7000,0.8150
665,0.7000,0.8150
280,0.7000,0.8150
623,0.7000,0.8150
293,0.7000,0.8150
691,0.7000,0.8150
193,0.7000,0.8150
718,0.7000,0.8150
249,0.7000,0.8150
793,0.7000,0.8150
419,0.7050,0.8150
733,0.7050,0.8150
39,0.7050,0.8150
245,0.7050,0.8150
0,0.7050,0.8150
0,0.7050,0.8150
0,0.7050,0.8150
0,0.7050,0.8150
0,0.7050,0.8150
0,0.7050,0.8150
0,0.7050,0.8150
331,0.7050,0.8150
89,0.7050,0.8150
658,0.7050,0.8150
447,0.7050,0.8150
983,0.7050,0.8150
641,0.7050,0.8150
1018,0.7050,0.8150
662,0.7050,0.8150
1018,0.7050,0.8150
795,0.7050,0.8100
1018,0.7050,0.8100
859,0.7050,0.8100
1018,0.7050,0.8100
767,0.7050,0.8100
1018,0.7050,0.8100
791,0.7050,0.8100
1018,0.7050,0.8100
711,0.7050,0.8100
1018,0.7050,0.8100
684,0.7050,0.8100
954,0.7050,0.8100
499,0.7050,0.8100
959,0.7050,0.8100
572,0.7050,0.8100
1018,0.7050,0.8100
473,0.7050,0.8100
877,0.7050,0.8100
492,0.7050,0.8100
753,0.7050,0.8100
512,0.7050,0.8100
880,0.7050,0.8100
479,0.7050,0.8100
899,0.7050,0.8100
391,0.7050,0.8100
793,0.7050,0.8100
299,0.7050,0.8100
668,0.7050,0.8100
135,0.7050,0.8100
759,0.7050,0.8100
411,0.7050,0.8100
781,0.7050,0.8100
268,0.7050,0.8100
700,0.7050,0.8100
187,0.7050,0.8100
627,0.7050,0.8100
311,0.7050,0.8100
588,0.7050,0.8100
302,0.7050,0.8100
752,0.7050,0.8100
392,0.7050,0.8100
800,0.7050,0.8100
339,0.7050,0.8100
737,0.7050,0.8100
265,0.7050,0.8100
760,0.7050,0.8100
324,0.7050,0.8100
741,0.7050,0.8100
343,0.7050,0.8100
763,0.7050,0.8100
434,0.7050,0.8100
799,0.7050,0.8100
429,0.7050,0.8100
824,0.7050,0.8100
346,0.7050,0.8100
762,0.7050,0.8100
313,0.7050,0.8100
783,0.7050,0.8100
342,0.7050,0.8100
782,0.7050,0.8100
303,0.7050,0.8100
666,0.7050,0.8100
370,0.7050,0.8100
743,0.7050,0.8100
372,0.7050,0.8100
704,0.7050,0.8100
311,0.7050,0.8100
626,0.7050,0.8100
175,0.7050,0.8100
569,0.7050,0.8100
169,0.7100,0.8100
667,0.7100,0.8100
247,0.7100,0.8100
712,0.7100,0.8100
305,0.7100,0.8100
709,0.7100,0.8100
278,0.7100,0.8100
659,0.7100,0.8100
227,0.7100,0.8100
632,0.7100,0.8100
260,0.7100,0.8100
782,0.7100,0.8100
346,0.7100,0.8100
738,0.7100,0.8100
294,0.7100,0.8100
620,0.7100,0.8100
307,0.7100,0.8100
689,0.7100,0.8100
375,0.7100,0.8100
790,0.7100,0.8100
300,0.7100,0.8100
711,0.7100,0.8100
180,0.7100,0.8100
710,0.7100,0.8100
450,0.7100,0.8100
799,0.7100,0.8100
420,0.7100,0.8100
750,0.7100,0.8100
312,0.7100,0.8100
711,0.7100,0.8100
370,0.7100,0.8100
743,0.7100,0.8100
419,0.7100,0.8100
716,0.7100,0.8100
304,0.7100,0.8100
749,0.7100,0.8100
212,0.7100,0.8100
665,0.7100,0.8100
235,0.7100,0.8100
671,0.7100,0.8100
308,0.7100,0.8100
760,0.7100,0.8100
278,0.7100,0.8100
756,0.7100,0.8100
272,0.7100,0.8100
716,0.7100,0.8100
297,0.7100,0.8100
696,0.7100,0.8100
253,0.7100,0.8100
616,0.7100,0.8100
309,0.7100,0.8100
706,0.7100,0.8100
338,0.7100,0.8100
696,0.7100,0.8100
316,0.7100,0.8100
702,0.7100,0.8100
330,0.7100,0.8100
683,0.7100,0.8100
299,0.7100,0.8100
793,0.7100,0.8100
368,0.7100,0.8100
711,0.7100,0.8100
361,0.7100,0.8100
708,0.7100,0.8100
395,0.7100,0.8100
692,0.7100,0.8100
331,0.7100,0.8100
733,0.7100,0.8100
337,0.7100,0.8100
699,0.7100,0.8100
303,0.7100,0.8100
684,0.7100,0.8100
288,0.7100,0.8100
641,0.7100,0.8100
313,0.7100,0.8100
668,0.7100,0.8100
362,0.7100,0.8100
701,0.7100,0.8100
345,0.7100,0.8100
627,0.7100,0.8100
252,0.7100,0.8100
615,0.7100,0.8100
317,0.7100,0.8100
717,0.7100,0.8100
336,0.7100,0.8100
721,0.7100,0.8100
204,0.7100,0.8100
726,0.7100,0.8100
328,0.7100,0.8100
605,0.7100,0.8100
333,0.7100,0.8100
737,0.7100,0.8100
312,0.7100,0.8100
715,0.7100,0.8100
268,0.7100,0.8100
807,0.7100,0.8100
317,0.7100,0.8100
826,0.7100,0.8100
373,0.7100,0.8100
798,0.7100,0.8100
561,0.7100,0.8100
899,0.7100,0.8100
480,0.7100,0.8100
867,0.7100,0.8100
467,0.7100,0.8100
822,0.7100,0.8100
415,0.7100,0.8100
701,0.7100,0.8100
333,0.7100,0.8100
711,0.7100,0.8100
295,0.7100,0.8100
617,0.7100,0.8100
212,0.7100,0.8100
509,0.7100,0.8100
178,0.7100,0.8100
564,0.7100,0.8100
271,0.7100,0.8100
652,0.7100,0.8100
213,0.7100,0.8100
589,0.7100,0.8100
213,0.7100,0.8100
690,0.7100,0.8100
342,0.7100,0.8100
688,0.7100,0.8100
220,0.7100,0.8100
625,0.7100,0.8100
292,0.7100,0.8100
681,0.7100,0.8100
292,0.7100,0.8100
580,0.7100,0.8100
330,0.7100,0.8100
646,0.7100,0.8100
289,0.7100,0.8100
691,0.7100,0.8100
328,0.7100,0.8100
669,0.7100,0.8100
335,0.7100,0.8100
674,0.7100,0.8100
285,0.7100,0.8100
783,0.7100,0.8100
380,0.7100,0.8100
727,0.7100,0.8100
316,0.7100,0.8100
676,0.7100,0.8100
375,0.7100,0.8100
769,0.7100,0.8100
376,0.7100,0.8100
792,0.7100,0.8100
420,0.7100,0.8100
883,0.7100,0.8100
237,0.7100,0.8100
601,0.7100,0.8100
301,0.7100,0.8100
525,0.7100,0.8100
322,0.7100,0.8100
699,0.7100,0.8100
313,0.7100,0.8100
663,0.7100,0.8100
328,0.7100,0.8100
702,0.7100,0.8100
290,0.7100,0.8100
633,0.7100,0.8100
236,0.7100,0.8100
643,0.7100,0.8100
250,0.7100,0.8100
615,0.7100,0.8100
237,0.7100,0.8100
686,0.7100,0.8100
322,0.7100,0.8100
645,0.7100,0.8100
270,0.7100,0.8100
649,0.7100,0.8100
252,0.7100,0.8100
690,0.7100,0.8100
307,0.7100,0.8100
694,0.7100,0.8100
345,0.7100,0.8100
697,0.7100,0.8100
363,0.7100,0.8100
695,0.7100,0.8100
349,0.7100,0.8100
679,0.7100,0.8100
289,0.7100,0.8100
599,0.7100,0.8100
296,0.7100,0.8100
793,0.7100,0.8100
171,0.7100,0.8100
425,0.7100,0.8100
0,0.7100,0.8100
273,0.7100,0.8100
74,0.7100,0.8100
423,0.7100,0.8100
185,0.7100,0.8100
669,0.7100,0.8100
220,0.7100,0.8100
634,0.7100,0.8100
311,0.7100,0.8100
656,0.7100,0.8100
307,0.7100,0.8100
629,0.7100,0.8100
332,0.7100,0.8100
740,0.7100,0.8100
371,0.7100,0.8100
738,0.7100,0.8100
378,0.7100,0.8100
721,0.7100,0.8100
414,0.7100,0.8100
759,0.7100,0.8100
384,0.7100,0.8100
758,0.7100,0.8100
351,0.7100,0.8100
807,0.7100,0.8100
447,0.7100,0.8100
713,0.7100,0.8100
310,0.7100,0.8100
684,0.7100,0.8100
339,0.7100,0.8100
680,0.7100,0.8100
439,0.7100,0.8100
811,0.7100,0.8100
522,0.7100,0.8100
773,0.7100,0.8100
444,0.7100,0.8100
764,0.7100,0.8100
368,0.7100,0.8100
673,0.7100,0.8100
379,0.7100,0.8100
740,0.7100,0.8100
446,0.7100,0.8100
796,0.7100,0.8100
397,0.7100,0.8100
705,0.7100,0.8100
230,0.7100,0.8100
629,0.7100,0.8100
328,0.7100,0.8100
566,0.7100,0.8100
245,0.7100,0.8100
643,0.7100,0.8100
294,0.7100,0.8100
812,0.7100,0.8100
425,0.7100,0.8100
795,0.7100,0.8100
376,0.7100,0.8100
823,0.7100,0.8100
469,0.7100,0.8100
786,0.7100,0.8100
431,0.7100,0.8100
830,0.7100,0.8100
471,0.7100,0.8100
771,0.7100,0.8100
355,0.7100,0.8100
775,0.7100,0.8100
366,0.7100,0.8100
678,0.7100,0.8100
414,0.7100,0.8100
768,0.7100,0.8100
449,0.7100,0.8100
760,0.7100,0.8100
396,0.7100,0.8100
736,0.7100,0.8100
352,0.7100,0.8100
712,0.7100,0.8100
386,0.7100,0.8100
761,0.7100,0.8100
380,0.7100,0.8100
696,0.7100,0.8100
303,0.7100,0.8100
588,0.7100,0.8100
282,0.7100,0.8100
636,0.7100,0.8100
317,0.7100,0.8100
646,0.7100,0.8100
330,0.7100,0.8100
683,0.7100,0.8100
294,0.7100,0.8100
671,0.7100,0.8100
299,0.7100,0.8100
649,0.7100,0.8100
363,0.7100,0.8100
721,0.7100,0.8100
408,0.7100,0.8100
721,0.7100,0.8100
394,0.7100,0.8100
723,0.7100,0.8100
411,0.7100,0.8100
711,0.7100,0.8100
409,0.7100,0.8100
671,0.7100,0.8100
288,0.7100,0.8100
614,0.7100,0.8100
338,0.7100,0.8100
661,0.7100,0.8100
323,0.7100,0.8100
645,0.7100,0.8100
318,0.7100,0.8100
782,0.7100,0.8100
449,0.7100,0.8100
691,0.7100,0.8100
420,0.7100,0.8100
774,0.7100,0.8100
327,0.7100,0.8100
722,0.7100,0.8100
383,0.7100,0.8100
742,0.7100,0.8100
405,0.7100,0.8100
825,0.7100,0.8100
396,0.7100,0.8100
793,0.7100,0.8100
323,0.7100,0.8100
741,0.7100,0.8100
376,0.7250,0.8100
692,0.7250,0.8100
296,0.7250,0.8100
624,0.7250,0.8100
268,0.7250,0.8100
595,0.7250,0.8100
290,0.7250,0.8100
672,0.7250,0.8100
352,0.7250,0.8100
680,0.7250,0.8100
285,0.7250,0.8100
642,0.7250,0.8100
237,0.7250,0.8100
595,0.7250,0.8100
320,0.7250,0.8100
678,0.7250,0.8100
343,0.7250,0.8100
668,0.7250,0.8100
375,0.7250,0.8100
694,0.7250,0.8100
287,0.7250,0.8050
689,0.7250,0.8050
370,0.7250,0.8050
686,0.7250,0.8050
302,0.7250,0.8050
727,0.7250,0.8050
401,0.7250,0.8050
686,0.7250,0.8050
377,0.7250,0.8050
677,0.7250,0.8050
313,0.7250,0.8050
765,0.7250,0.8050
384,0.7250,0.8050
781,0.7250,0.8050
441,0.7200,0.8050
745,0.7200,0.8050
393,0.7200,0.8050
734,0.7200,0.8050
382,0.7200,0.8050
666,0.7200,0.8050
453,0.7000,0.7950
782,0.7000,0.7950
424,0.7000,0.7950
688,0.7000,0.7950
367,0.7000,0.7950
682,0.7000,0.7950
328,0.7000,0.7950
657,0.7000,0.7950
302,0.7000,0.7950
583,0.7000,0.7950
387,0.6850,0.7900
624,0.6850,0.7900
324,0.6850,0.7900
709,0.6850,0.7900
365,0.6850,0.7900
567,0.6850,0.7900
364,0.6850,0.7900
717,0.6850,0.7900
449,0.6850,0.7900
726,0.6850,0.7900
357,0.6700,0.7900
645,0.6700,0.7900
328,0.6700,0.7900
613,0.6700,0.7900
319,0.6700,0.7900
572,0.6700,0.7900
288,0.6700,0.7900
604,0.6700,0.7900
327,0.6700,0.7900
598,0.6700,0.7900
240,0.6650,0.7900
631,0.6650,0.7900
243,0.6650,0.7900
595,0.6650,0.7900
266,0.6650,0.7900
625,0.6650,0.7900
270,0.6650,0.7900
546,0.6650,0.7900
295,0.6650,0.7900
621,0.6650,0.7900
367,0.6650,0.7850
681,0.6650,0.7850
331,0.6650,0.7850
735,0.6650,0.7850
293,0.6650,0.7850
611,0.6650,0.7850
351,0.6650,0.7850
575,0.6650,0.7850
138,0.6650,0.7850
751,0.6650,0.7850
374,0.6600,0.7850
875,0.6600,0.7850
467,0.6600,0.7850
839,0.6600,0.7850
536,0.6600,0.7850
859,0.6600,0.7850
535,0.6600,0.7850
854,0.6600,0.7850
617,0.6600,0.7850
876,0.6600,0.7850
414,0.6550,0.7800
772,0.6550,0.7800
435,0.6550,0.7800
684,0.6550,0.7800
368,0.6550,0.7800
632,0.6550,0.7800
358,0.6550,0.7800
537,0.6550,0.7800
355,0.6550,0.7800
589,0.6550,0.7800
348,0.6550,0.7700
742,0.6550,0.7700
331,0.6550,0.7700
723,0.6550,0.7700
387,0.6550,0.7700
727,0.6550,0.7700
411,0.6550,0.7700
607,0.6550,0.7700
333,0.6550,0.7700
566,0.6550,0.7700
282,0.6450,0.7600
571,0.6450,0.7600
354,0.6450,0.7600
656,0.6450,0.7600
324,0.6450,0.7600
535,0.6450,0.7600
361,0.6450,0.7600
676,0.6450,0.7600
334,0.6450,0.7600
726,0.6450,0.7600
361,0.6450,0.7550
639,0.6450,0.7550
388,0.6450,0.7550
628,0.6450,0.7550
294,0.6450,0.7550
643,0.6450,0.7550
587,0.6450,0.7550
568,0.6450,0.7550
304,0.6450,0.7550
683,0.6450,0.7550
463,0.6450,0.7500
732,0.6450,0.7500
472,0.6450,0.7500
722,0.6450,0.7500
327,0.6450,0.7500
653,0.6450,0.7500
321,0.6450,0.7500
613,0.6450,0.7500
282,0.6450,0.7500
650,0.6450,0.7500
348,0.6450,0.7450
668,0.6450,0.7450
438,0.6450,0.7450
680,0.6450,0.7450
367,0.6450,0.7450
605,0.6450,0.7450
345,0.6450,0.7450
571,0.6450,0.7450
424,0.6450,0.7450
687,0.6450,0.7450
275,0.6450,0.7400
559,0.6450,0.7400
299,0.6450,0.7400
574,0.6450,0.7400
278,0.6450,0.7400
546,0.6450,0.7400
346,0.6450,0.7400
540,0.6450,0.7400
469,0.6450,0.7400
704,0.6450,0.7400
304,0.6450,0.7250
607,0.6450,0.7250
255,0.6450,0.7250
604,0.6450,0.7250
347,0.6450,0.7250
541,0.6450,0.7250
311,0.6450,0.7250
608,0.6450,0.7250
289,0.6450,0.7250
476,0.6450,0.7250
324,0.6450,0.7200
678,0.6450,0.7200
387,0.6450,0.7200
656,0.6450,0.7200
353,0.6450,0.7200
680,0.6450,0.7200
440,0.6450,0.7200
688,0.6450,0.7200
327,0.6450,0.7200
652,0.6450,0.7200
349,0.6450,0.7100
658,0.6450,0.7100
380,0.6450,0.7100
691,0.6450,0.7100
384,0.6450,0.7100
582,0.6450,0.7100
408,0.6450,0.7100
683,0.6450,0.7100
414,0.6450,0.7100
461,0.6450,0.7100
437,0.6450,0.7050
634,0.6450,0.7050
261,0.6450,0.7050
688,0.6450,0.7050
295,0.6450,0.7050
639,0.6450,0.7050
307,0.6450,0.7050
493,0.6450,0.7050
377,0.6450,0.7050
559,0.6450,0.7050
312,0.6450,0.6950
582,0.6450,0.6950
554,0.6450,0.6950
649,0.6450,0.6950
264,0.6450,0.6950
499,0.6450,0.6950
281,0.6450,0.6950
489,0.6450,0.6950
313,0.6450,0.6950
616,0.6450,0.6950
428,0.6450,0.6950
624,0.6450,0.6950
279,0.6450,0.6950
696,0.6450,0.6950
407,0.6450,0.6900
743,0.6450,0.6900
456,0.6450,0.6900
717,0.6450,0.6900
399,0.6450,0.6900
672,0.6450,0.6900
435,0.6450,0.6850
592,0.6450,0.6850
403,0.6450,0.6850
647,0.6450,0.6850
513,0.6450,0.6850
793,0.6450,0.6850
366,0.6450,0.6850
362,0.6450,0.6850
0,0.6450,0.6850
264,0.6450,0.6850
246,0.6450,0.6750
557,0.6450,0.6750
371,0.6450,0.6750
617,0.6450,0.6750
437,0.6450,0.6750
620,0.6450,0.6750
438,0.6450,0.6750
612,0.6450,0.6750
530,0.6450,0.6750
667,0.6450,0.6750
459,0.6400,0.6600
611,0.6400,0.6600
488,0.6400,0.6600
616,0.6400,0.6600
396,0.6400,0.6600
559,0.6400,0.6600
340,0.6400,0.6600
572,0.6400,0.6600
291,0.6400,0.6600
574,0.6400,0.6600
481,0.6350,0.6500
732,0.6350,0.6500
413,0.6350,0.6500
619,0.6350,0.6500
286,0.6350,0.6500
575,0.6350,0.6500
290,0.6350,0.6500
519,0.6350,0.6500
371,0.6350,0.6500
611,0.6350,0.6500
440,0.6300,0.6300
634,0.6300,0.6300
423,0.6300,0.6300
604,0.6300,0.6300
459,0.6300,0.6300
640,0.6300,0.6300
380,0.6300,0.6300
586,0.6300,0.6300
395,0.6300,0.6300
644,0.6300,0.6300
453,0.6300,0.6050
681,0.6300,0.6050
528,0.6300,0.6050
638,0.6300,0.6050
412,0.6300,0.6050
609,0.6300,0.6050
376,0.6300,0.6050
663,0.6300,0.6050
352,0.6300,0.6050
657,0.6300,0.6050
512,0.6300,0.5850
735,0.6300,0.5850
623,0.6300,0.5850
614,0.6300,0.5850
473,0.6300,0.5850
750,0.6300,0.5850
484,0.6300,0.5850
667,0.6300,0.5850
643,0.6300,0.5850
799,0.6300,0.5850
524,0.6250,0.5500
727,0.6250,0.5500
487,0.6250,0.5500
618,0.6250,0.5500
393,0.6250,0.5500
562,0.6250,0.5500
398,0.6250,0.5500
564,0.6250,0.5500
366,0.6250,0.5500
564,0.6250,0.5500
280,0.6250,0.5300
538,0.6250,0.5300
399,0.6250,0.5300
618,0.6250,0.5300
410,0.6250,0.5300
496,0.6250,0.5300
348,0.6250,0.5300
570,0.6250,0.5250
430,0.6250,0.5250
592,0.6250,0.5250
416,0.6200,0.5050
478,0.6200,0.5050
361,0.6200,0.5050
659,0.6200,0.5050
492,0.6200,0.5050
620,0.6200,0.5050
408,0.6200,0.5050
622,0.6200,0.5050
375,0.6200,0.5050
586,0.6200,0.5000
380,0.6200,0.4800
585,0.6200,0.4800
449,0.6200,0.4800
618,0.6200,0.4800
515,0.6200,0.4800
633,0.6200,0.4800
457,0.6200,0.4800
645,0.6200,0.4800
361,0.6200,0.4750
563,0.6200,0.4750
403,0.6200,0.4650
598,0.6200,0.4650
493,0.6200,0.4650
656,0.6200,0.4650
464,0.6200,0.4650
626,0.6200,0.4650
321,0.6200,0.4650
564,0.6200,0.4650
397,0.6200,0.4650
610,0.6200,0.4650
366,0.6200,0.4650
584,0.6200,0.4600
430,0.6200,0.4600
661,0.6200,0.4600
502,0.6200,0.4600
656,0.6200,0.4600
449,0.6200,0.4600
529,0.6200,0.4600
361,0.6200,0.4600
572,0.6200,0.4600
377,0.6200,0.4500
558,0.6200,0.4500
455,0.6200,0.4500
600,0.6200,0.4500
457,0.6200,0.4500
561,0.6200,0.4500
468,0.6200,0.4500
688,0.6200,0.4500
489,0.6200,0.4500
629,0.6200,0.4500
540,0.6200,0.4400
767,0.6200,0.4400
588,0.6200,0.4400
689,0.6200,0.4400
473,0.6200,0.4400
567,0.6200,0.4400
416,0.6200,0.4400
560,0.6200,0.4400
396,0.6200,0.4400
562,0.6200,0.4400
404,0.6250,0.4250
598,0.6250,0.4250
501,0.6250,0.4250
614,0.6250,0.4250
351,0.6250,0.4250
508,0.6250,0.4250
438,0.6250,0.4250
639,0.6250,0.4250
467,0.6250,0.4250
557,0.6250,0.4250
331,0.6250,0.4150
527,0.6250,0.4150
435,0.6250,0.4150
545,0.6250,0.4150
387,0.6250,0.4150
547,0.6250,0.4150
389,0.6250,0.4150
513,0.6250,0.4150
344,0.6250,0.4150
548,0.6250,0.4150
440,0.6250,0.3950
453,0.6250,0.3950
376,0.6250,0.3950
513,0.6250,0.3950
370,0.6250,0.3950
628,0.6250,0.3950
581,0.6250,0.3950
633,0.6250,0.3950
522,0.6250,0.3950
664,0.6250,0.3950
450,0.6250,0.3800
632,0.6250,0.3800
433,0.6250,0.3800
659,0.6250,0.3800
495,0.6250,0.3800
650,0.6250,0.3800
541,0.6250,0.3800
660,0.6250,0.3800
464,0.6250,0.3800
588,0.6250,0.3800
423,0.6250,0.3700
563,0.6250,0.3700
476,0.6250,0.3700
582,0.6250,0.3700
390,0.6250,0.3700
643,0.6250,0.3700
472,0.6250,0.3700
606,0.6250,0.3700
473,0.6250,0.3650
566,0.6250,0.3650
461,0.6300,0.3550
583,0.6300,0.3550
442,0.6300,0.3550
637,0.6300,0.3550
527,0.6300,0.3550
651,0.6300,0.3550
376,0.6300,0.3550
536,0.6300,0.3550
467,0.6300,0.3550
591,0.6300,0.3550
507,0.6300,0.3550
569,0.6300,0.3550
465,0.6300,0.3550
470,0.6300,0.3550
442,0.6300,0.3550
519,0.6300,0.3550
451,0.6300,0.3550
508,0.6300,0.3550
405,0.6300,0.3550
695,0.6300,0.3550
563,0.6350,0.3450
526,0.6350,0.3450
410,0.6350,0.3450
590,0.6350,0.3450
551,0.6350,0.3450
632,0.6350,0.3450
488,0.6350,0.3450
502,0.6350,0.3450
391,0.6350,0.3450
516,0.6350,0.3450
340,0.6350,0.3350
534,0.6350,0.3350
369,0.6350,0.3350
562,0.6350,0.3350
405,0.6350,0.3350
519,0.6350,0.3350
318,0.6350,0.3350
454,0.6350,0.3300
361,0.6350,0.3300
535,0.6350,0.3300
364,0.6350,0.3250
634,0.6350,0.3250
462,0.6350,0.3250
612,0.6350,0.3250
463,0.6350,0.3250
438,0.6350,0.3250
448,0.6350,0.3250
539,0.6350,0.3250
415,0.6350,0.3250
500,0.6350,0.3250
475,0.6250,0.3200
586,0.6250,0.3200
546,0.6250,0.3200
704,0.6250,0.3200
518,0.6250,0.3200
610,0.6250,0.3200
466,0.6250,0.3200
545,0.6250,0.3200
420,0.6250,0.3200
553,0.6250,0.3200
478,0.6300,0.2950
636,0.6300,0.2950
585,0.6300,0.2950
741,0.6300,0.2950
566,0.6300,0.2950
656,0.6300,0.2950
514,0.6300,0.2950
621,0.6300,0.2950
349,0.6300,0.2950
488,0.6300,0.2950
363,0.6300,0.2850
582,0.6300,0.2850
482,0.6300,0.2850
636,0.6300,0.2850
528,0.6300,0.2850
596,0.6300,0.2850
444,0.6300,0.2850
481,0.6300,0.2850
280,0.6300,0.2850
576,0.6300,0.2850
501,0.6300,0.2650
615,0.6300,0.2650
518,0.6300,0.2650
563,0.6300,0.2650
451,0.6300,0.2650
611,0.6300,0.2650
478,0.6300,0.2650
483,0.6300,0.2650
367,0.6300,0.2650
430,0.6300,0.2650
362,0.6300,0.2550
531,0.6300,0.2550
515,0.6300,0.2550
536,0.6300,0.2550
406,0.6300,0.2550
559,0.6300,0.2550
439,0.6300,0.2550
591,0.6300,0.2550
516,0.6300,0.2550
582,0.6300,0.2550
425,0.6300,0.2450
504,0.6300,0.2450
347,0.6300,0.2450
599,0.6300,0.2450
407,0.6300,0.2450
437,0.6300,0.2450
405,0.6300,0.2450
449,0.6300,0.2450
371,0.6300,0.2450
441,0.6300,0.2450
253,0.6300,0.2400
419,0.6300,0.2400
310,0.6300,0.2400
404,0.6300,0.2400
296,0.6300,0.2400
481,0.6300,0.2400
524,0.6300,0.2400
518,0.6300,0.2400
458,0.6300,0.2400
540,0.6300,0.2350
445,0.6300,0.2300
521,0.6300,0.2300
419,0.6300,0.2300
522,0.6300,0.2300
454,0.6300,0.2300
547,0.6300,0.2300
509,0.6300,0.2250
672,0.6300,0.2250
523,0.6300,0.2250
701,0.6300,0.2250
480,0.6300,0.2200
697,0.6300,0.2200
645,0.6300,0.2200
758,0.6300,0.2200
617,0.6300,0.2200
762,0.6300,0.2200
629,0.6300,0.2200
696,0.6300,0.2200
504,0.6300,0.2200
603,0.6300,0.2200
345,0.6350,0.2100
542,0.6350,0.2100
445,0.6350,0.2100
557,0.6350,0.2100
444,0.6350,0.2100
632,0.6350,0.2100
544,0.6350,0.2100
596,0.6350,0.2100
511,0.6350,0.2100
499,0.6350,0.2100
437,0.6350,0.2000
427,0.6350,0.2000
370,0.6350,0.2000
478,0.6350,0.2000
504,0.6350,0.2000
586,0.6350,0.2000
519,0.6350,0.2000
571,0.6350,0.2000
626,0.6350,0.2000
629,0.6350,0.2000
423,0.6350,0.2000
490,0.6350,0.2000
414,0.6350,0.2000
500,0.6350,0.2000
463,0.6350,0.2000
591,0.6350,0.2000
457,0.6350,0.2000
574,0.6350,0.2000
440,0.6350,0.2000
529,0.6350,0.2000
502,0.6350,0.1900
548,0.6350,0.1900
450,0.6350,0.1900
461,0.6350,0.1900
438,0.6350,0.1900
516,0.6350,0.1900
337,0.6350,0.1900
445,0.6350,0.1900
411,0.6350,0.1900
453,0.6400,0.1900
377,0.6400,0.1850
545,0.6400,0.1850
501,0.6400,0.1850
645,0.6400,0.1850
485,0.6400,0.1800
516,0.6400,0.1800
396,0.6400,0.1800
555,0.6400,0.1800
465,0.6400,0.1800
543,0.6400,0.1800
491,0.6400,0.1700
538,0.6400,0.1700
450,0.6400,0.1700
556,0.6400,0.1700
473,0.6400,0.1650
659,0.6400,0.1650
529,0.6400,0.1650
623,0.6400,0.1650
489,0.6400,0.1650
613,0.6400,0.1650
510,0.6400,0.1550
548,0.6400,0.1550
476,0.6400,0.1550
676,0.6400,0.1550
621,0.6400,0.1550
628,0.6400,0.1550
575,0.6400,0.1550
629,0.6400,0.1550
508,0.6400,0.1550
537,0.6400,0.1500
353,0.6400,0.1200
494,0.6400,0.1200
435,0.6400,0.1200
538,0.6400,0.1200
444,0.6400,0.1200
476,0.6400,0.1200
462,0.6400,0.1200
545,0.6400,0.1200
373,0.6400,0.1200
509,0.6400,0.1200
364,0.6350,0.1100
419,0.6350,0.1100
378,0.6350,0.1100
526,0.6350,0.1100
394,0.6350,0.1100
408,0.6350,0.1100
397,0.6350,0.1100
536,0.6350,0.1100
406,0.6350,0.1100
570,0.6350,0.1100
328,0.6300,0.0800
579,0.6300,0.0800
480,0.6300,0.0800
504,0.6300,0.0800
508,0.6300,0.0800
616,0.6300,0.0800
495,0.6300,0.0800
553,0.6300,0.0800
532,0.6300,0.0800
620,0.6300,0.0800
487,0.6250,0.0600
549,0.6250,0.0600
487,0.6250,0.0600
628,0.6250,0.0600
481,0.6250,0.0600
488,0.6250,0.0600
553,0.6250,0.0600
694,0.6250,0.0600
590,0.6250,0.0600
691,0.6250,0.0600
619,0.6250,0.0400
646,0.6250,0.0400
474,0.6250,0.0400
510,0.6250,0.0400
450,0.6250,0.0400
582,0.6250,0.0400
492,0.6250,0.0400
661,0.6250,0.0400
443,0.6250,0.0400
584,0.6250,0.0400
535,0.6200,0.0200
556,0.6200,0.0200
473,0.6200,0.0200
484,0.6200,0.0200
439,0.6200,0.0200
587,0.6200,0.0200
504,0.6200,0.0200
647,0.6200,0.0200
531,0.6200,0.0200
541,0.6200,0.0200
381,0.6200,0.0050
615,0.6200,0.0050
576,0.6200,0.0050
679,0.6200,0.0050
572,0.6200,0.0050
599,0.6200,0.0050
492,0.6200,0.0050
589,0.6200,0.0050
496,0.6200,0.0050
554,0.6200,0.0050
457,0.6150,-0.0150
554,0.6150,-0.0150
478,0.6150,-0.0150
632,0.6150,-0.0150
443,0.6150,-0.0150
561,0.6150,-0.0150
480,0.6150,-0.0150
524,0.6150,-0.0150
368,0.6150,-0.0150
557,0.6150,-0.0150
414,0.6100,-0.0300
548,0.6100,-0.0300
415,0.6100,-0.0300
589,0.6100,-0.0300
435,0.6100,-0.0300
444,0.6100,-0.0300
404,0.6100,-0.0300
495,0.6100,-0.0300
422,0.6100,-0.0300
523,0.6100,-0.0300
522,0.6050,-0.0550
384,0.6050,-0.0550
384,0.6050,-0.0550
526,0.6050,-0.0550
534,0.6050,-0.0550
608,0.6050,-0.0550
518,0.6050,-0.0550
691,0.6050,-0.0550
486,0.6050,-0.0550
642,0.6050,-0.0550
577,0.5950,-0.0800
624,0.5950,-0.0800
531,0.5950,-0.0800
567,0.5950,-0.0800
473,0.5900,-0.0800
551,0.5900,-0.0800
471,0.5900,-0.0800
628,0.5900,-0.0800
427,0.5900,-0.0800
532,0.5900,-0.0850
498,0.5750,-0.1200
561,0.5750,-0.1200
412,0.5750,-0.1200
552,0.5750,-0.1200
376,0.5750,-0.1200
539,0.5750,-0.1200
372,0.5750,-0.1200
521,0.5750,-0.1250
403,0.5750,-0.1250
545,0.5750,-0.1250
350,0.5650,-0.1500
539,0.5650,-0.1500
366,0.5650,-0.1500
536,0.5650,-0.1500
462,0.5650,-0.1500
620,0.5650,-0.1500
389,0.5650,-0.1500
554,0.5650,-0.1500
443,0.5650,-0.1500
494,0.5650,-0.1500
483,0.5600,-0.1650
467,0.5600,-0.1650
542,0.5600,-0.1650
510,0.5600,-0.1650
473,0.5600,-0.1650
606,0.5600,-0.1650
603,0.5600,-0.1700
750,0.5600,-0.1700
655,0.5600,-0.1700
632,0.5600,-0.1700
493,0.5600,-0.1850
671,0.5600,-0.1850
595,0.5600,-0.1850
628,0.5600,-0.1850
541,0.5600,-0.1850
735,0.5600,-0.1850
654,0.5600,-0.1850
716,0.5600,-0.1850
575,0.5600,-0.1850
627,0.5600,-0.1850
479,0.5550,-0.2000
540,0.5550,-0.2000
324,0.5550,-0.2000
594,0.5550,-0.2000
516,0.5550,-0.2000
578,0.5550,-0.2000
415,0.5550,-0.2000
512,0.5550,-0.2000
418,0.5550,-0.2000
455,0.5550,-0.2000
423,0.5550,-0.2100
539,0.5550,-0.2100
442,0.5550,-0.2100
575,0.5550,-0.2100
346,0.5550,-0.2100
504,0.5550,-0.2100
391,0.5550,-0.2150
554,0.5550,-0.2150
399,0.5550,-0.2150
420,0.5550,-0.2150
363,0.5500,-0.2300
638,0.5500,-0.2300
509,0.5500,-0.2300
596,0.5500,-0.2300
385,0.5500,-0.2300
492,0.5500,-0.2300
359,0.5500,-0.2300
582,0.5500,-0.2300
417,0.5500,-0.2300
515,0.5500,-0.2300
463,0.5450,-0.2500
559,0.5450,-0.2500
497,0.5450,-0.2500
669,0.5450,-0.2500
507,0.5450,-0.2500
657,0.5450,-0.2500
475,0.5450,-0.2500
527,0.5450,-0.2500
405,0.5450,-0.2500
495,0.5450,-0.2500
494,0.5450,-0.2700
460,0.5450,-0.2700
408,0.5450,-0.2700
519,0.5450,-0.2700
441,0.5450,-0.2700
590,0.5450,-0.2700
345,0.5450,-0.2700
498,0.5450,-0.2700
401,0.5450,-0.2700
559,0.5450,-0.2700
379,0.5450,-0.2800
510,0.5450,-0.2800
463,0.5450,-0.2800
588,0.5450,-0.2800
428,0.5450,-0.2850
577,0.5450,-0.2850
353,0.5450,-0.2850
731,0.5450,-0.2850
512,0.5450,-0.2850
577,0.5450,-0.2850
544,0.5450,-0.3000
626,0.5450,-0.3000
477,0.5450,-0.3000
559,0.5450,-0.3000
435,0.5450,-0.3000
581,0.5450,-0.3000
451,0.5450,-0.3000
524,0.5450,-0.3000
273,0.5450,-0.3000
303,0.5450,-0.3000
233,0.5450,-0.3200
542,0.5450,-0.3200
431,0.5450,-0.3200
551,0.5450,-0.3200
378,0.5450,-0.3200
521,0.5450,-0.3200
455,0.5450,-0.3200
599,0.5450,-0.3200
491,0.5450,-0.3200
685,0.5450,-0.3200
551,0.5500,-0.3350
637,0.5500,-0.3350
476,0.5500,-0.3350
590,0.5500,-0.3350
431,0.5500,-0.3350
585,0.5500,-0.3350
296,0.5500,-0.3350
539,0.5500,-0.3350
337,0.5500,-0.3350
556,0.5500,-0.3350
356,0.5500,-0.3600
531,0.5500,-0.3600
391,0.5500,-0.3600
611,0.5500,-0.3600
414,0.5500,-0.3600
504,0.5500,-0.3600
398,0.5500,-0.3600
577,0.5500,-0.3600
417,0.5500,-0.3600
519,0.5500,-0.3600
389,0.5500,-0.3800
528,0.5500,-0.3850
321,0.5500,-0.3850
389,0.5500,-0.3850
283,0.5500,-0.3850
516,0.5500,-0.3850
455,0.5500,-0.3850
573,0.5500,-0.3850
537,0.5500,-0.3850
636,0.5500,-0.3850
438,0.5500,-0.4000
577,0.5500,-0.4000
404,0.5500,-0.4000
594,0.5500,-0.4000
455,0.5500,-0.4000
617,0.5500,-0.4050
460,0.5500,-0.4050
642,0.5500,-0.4050
439,0.5500,-0.4050
550,0.5500,-0.4050
356,0.5550,-0.4350
568,0.5550,-0.4350
425,0.5550,-0.4350
586,0.5550,-0.4350
424,0.5550,-0.4350
591,0.5550,-0.4350
468,0.5550,-0.4350
642,0.5550,-0.4350
483,0.5550,-0.4350
673,0.5550,-0.4350
494,0.5600,-0.4600
600,0.5600,-0.4600
504,0.5600,-0.4600
655,0.5600,-0.4600
438,0.5600,-0.4600
611,0.5600,-0.4600
478,0.5600,-0.4600
603,0.5600,-0.4600
481,0.5600,-0.4600
729,0.5600,-0.4600
525,0.5650,-0.4850
620,0.5650,-0.4850
523,0.5650,-0.4850
666,0.5650,-0.4850
467,0.5650,-0.4850
609,0.5650,-0.4850
508,0.5650,-0.4850
523,0.5650,-0.4850
404,0.5650,-0.4850
531,0.5650,-0.4850
393,0.5700,-0.5150
500,0.5700,-0.5150
526,0.5700,-0.5150
529,0.5700,-0.5150
512,0.5700,-0.5150
710,0.5700,-0.5150
435,0.5700,-0.5150
595,0.5700,-0.5150
395,0.5700,-0.5150
549,0.5700,-0.5150
453,0.5700,-0.5350
613,0.5700,-0.5350
511,0.5700,-0.5350
656,0.5700,-0.5350
504,0.5700,-0.5400
524,0.5700,-0.5400
421,0.5700,-0.5400
693,0.5700,-0.5400
429,0.5700,-0.5400
536,0.5700,-0.5400
330,0.5700,-0.5550
428,0.5700,-0.5550
357,0.5700,-0.5550
508,0.5700,-0.5550
390,0.5750,-0.5550
521,0.5750,-0.5550
451,0.5750,-0.5550
628,0.5750,-0.5550
440,0.5750,-0.5550
627,0.5750,-0.5550
429,0.5750,-0.5750
568,0.5750,-0.5750
372,0.5750,-0.5750
540,0.5750,-0.5750
392,0.5750,-0.5750
609,0.5750,-0.5750
382,0.5750,-0.5750
601,0.5750,-0.5750
438,0.5750,-0.5750
625,0.5750,-0.5750
535,0.5800,-0.5950
639,0.5800,-0.5950
480,0.5800,-0.5950
616,0.5800,-0.5950
438,0.5800,-0.5950
595,0.5800,-0.5950
382,0.5800,-0.5950
525,0.5800,-0.5950
338,0.5800,-0.5950
451,0.5800,-0.5950
440,0.5800,-0.6050
530,0.5800,-0.6050
391,0.5800,-0.6050
600,0.5800,-0.6050
334,0.5800,-0.6050
526,0.5800,-0.6050
322,0.5800,-0.6050
409,0.5800,-0.6050
305,0.5800,-0.6050
528,0.5800,-0.6050
443,0.5800,-0.6200
567,0.5800,-0.6200
375,0.5800,-0.6200
651,0.5800,-0.6200
471,0.5800,-0.6200
562,0.5800,-0.6200
361,0.5800,-0.6200
556,0.5800,-0.6200
391,0.5800,-0.6200
583,0.5800,-0.6200
328,0.5800,-0.6250
598,0.5800,-0.6250
380,0.5800,-0.6250
699,0.5800,-0.6250
265,0.5800,-0.6250
552,0.5800,-0.6250
386,0.5800,-0.6250
673,0.5800,-0.6250
510,0.5800,-0.6250
611,0.5800,-0.6250
366,0.5800,-0.6300
612,0.5800,-0.6300
461,0.5800,-0.6300
663,0.5800,-0.6300
583,0.5800,-0.6300
704,0.5800,-0.6300
460,0.5800,-0.6300
731,0.5800,-0.6300
485,0.5800,-0.6300
680,0.5800,-0.6300
556,0.5850,-0.6450
783,0.5850,-0.6450
491,0.5850,-0.6450
548,0.5850,-0.6450
355,0.5850,-0.6450
597,0.5850,-0.6450
441,0.5850,-0.6450
797,0.5850,-0.6450
569,0.5850,-0.6450
687,0.5850,-0.6450
452,0.5900,-0.6600
649,0.5900,-0.6600
499,0.5900,-0.6600
714,0.5900,-0.6600
505,0.5900,-0.6600
635,0.5900,-0.6600
378,0.5900,-0.6600
611,0.5900,-0.6600
431,0.5900,-0.6600
612,0.5900,-0.6600
413,0.5900,-0.6700
649,0.5900,-0.6700
389,0.5900,-0.6700
668,0.5900,-0.6700
332,0.5900,-0.6700
518,0.5950,-0.6700
325,0.5950,-0.6700
573,0.5950,-0.6700
361,0.5950,-0.6700
620,0.5950,-0.6700
419,0.6050,-0.6850
602,0.6050,-0.6850
421,0.6050,-0.6850
599,0.6050,-0.6850
353,0.6050,-0.6850
566,0.6050,-0.6850
337,0.6050,-0.6850
601,0.6050,-0.6850
336,0.6050,-0.6850
577,0.6050,-0.6850
448,0.6150,-0.7100
728,0.6150,-0.7100
433,0.6150,-0.7100
679,0.6150,-0.7100
372,0.6150,-0.7100
646,0.6150,-0.7100
411,0.6150,-0.7100
624,0.6150,-0.7100
427,0.6150,-0.7100
636,0.6150,-0.7100
439,0.6250,-0.7300
645,0.6250,-0.7300
423,0.6250,-0.7300
717,0.6250,-0.7300
378,0.6250,-0.7300
571,0.6250,-0.7300
362,0.6250,-0.7300
515,0.6250,-0.7300
382,0.6250,-0.7300
563,0.6250,-0.7300
403,0.6300,-0.7400
738,0.6300,-0.7400
413,0.6300,-0.7400
725,0.6300,-0.7400
449,0.6300,-0.7400
678,0.6300,-0.7400
426,0.6300,-0.7400
644,0.6300,-0.7400
402,0.6300,-0.7400
647,0.6300,-0.7400
409,0.6450,-0.7600
646,0.6450,-0.7600
366,0.6450,-0.7600
648,0.6450,-0.7600
380,0.6450,-0.7600
551,0.6450,-0.7600
377,0.6450,-0.7600
578,0.6450,-0.7600
375,0.6450,-0.7600
688,0.6450,-0.7600
428,0.6500,-0.7650
614,0.6500,-0.7650
382,0.6500,-0.7650
530,0.6500,-0.7650
287,0.6500,-0.7650
541,0.6500,-0.7650
322,0.6500,-0.7650
609,0.6500,-0.7650
282,0.6500,-0.7650
681,0.6500,-0.7650
395,0.6650,-0.7850
685,0.6650,-0.7850
592,0.6650,-0.7850
810,0.6650,-0.7850
509,0.6650,-0.7850
716,0.6650,-0.7850
406,0.6650,-0.7850
531,0.6650,-0.7850
206,0.6650,-0.7850
657,0.6650,-0.7850
355,0.6750,-0.7900
596,0.6750,-0.7900
407,0.6750,-0.7900
633,0.6750,-0.7950
400,0.6750,-0.7950
672,0.6750,-0.7950
300,0.6750,-0.7950
572,0.6750,-0.7950
376,0.6750,-0.7950
527,0.6750,-0.7950
360,0.6950,-0.8100
619,0.6950,-0.8100
348,0.6950,-0.8100
606,0.6950,-0.8100
279,0.6950,-0.8100
606,0.6950,-0.8100
340,0.6950,-0.8100
662,0.6950,-0.8100
438,0.6950,-0.8100
696,0.6950,-0.8100
489,0.7250,-0.8300
685,0.7250,-0.8300
498,0.7250,-0.8300
743,0.7300,-0.8300
437,0.7300,-0.8300
685,0.7300,-0.8300
332,0.7300,-0.8300
745,0.7300,-0.8300
425,0.7300,-0.8300
653,0.7300,-0.8300
417,0.7500,-0.8450
665,0.7500,-0.8450
387,0.7500,-0.8450
704,0.7500,-0.8450
370,0.7500,-0.8450
618,0.7500,-0.8500
340,0.7500,-0.8500
587,0.7500,-0.8500
407,0.7500,-0.8500
706,0.7500,-0.8500
499,0.7600,-0.8600
654,0.7600,-0.8600
435,0.7600,-0.8600
741,0.7600,-0.8600
426,0.7600,-0.8600
711,0.7600,-0.8600
431,0.7600,-0.8600
715,0.7600,-0.8600
398,0.7600,-0.8600
726,0.7600,-0.8600
396,0.7700,-0.8600
696,0.7700,-0.8600
409,0.7700,-0.8600
717,0.7700,-0.8600
300,0.7700,-0.8600
639,0.7700,-0.8600
306,0.7700,-0.8600
611,0.7700,-0.8600
334,0.7700,-0.8600
768,0.7700,-0.8600
374,0.7750,-0.8700
749,0.7750,-0.8700
387,0.7750,-0.8700
687,0.7750,-0.8700
417,0.7750,-0.8700
647,0.7750,-0.8700
336,0.7750,-0.8700
610,0.7750,-0.8700
377,0.7750,-0.8700
596,0.7750,-0.8700
363,0.7950,-0.8750
645,0.7950,-0.8750
243,0.7950,-0.8750
600,0.7950,-0.8750
316,0.7950,-0.8750
646,0.7950,-0.8750
408,0.7950,-0.8750
775,0.7950,-0.8750
396,0.7950,-0.8750
674,0.7950,-0.8750
377,0.8100,-0.8800
625,0.8100,-0.8800
269,0.8100,-0.8800
598,0.8100,-0.8800
403,0.8100,-0.8800
667,0.8100,-0.8800
308,0.8100,-0.8800
711,0.8100,-0.8850
349,0.8100,-0.8850
609,0.8100,-0.8850
284,0.8200,-0.8900
687,0.8200,-0.8900
342,0.8200,-0.8900
572,0.8200,-0.8900
263,0.8200,-0.8900
541,0.8200,-0.8900
320,0.8200,-0.8900
648,0.8200,-0.8900
297,0.8200,-0.8900
680,0.8200,-0.8900
389,0.8350,-0.9050
695,0.8350,-0.9050
379,0.8350,-0.9050
696,0.8350,-0.9050
473,0.8350,-0.9050
771,0.8350,-0.9050
399,0.8350,-0.9050
672,0.8350,-0.9050
334,0.8350,-0.9050
749,0.8350,-0.9050
433,0.8450,-0.9100
742,0.8450,-0.9100
403,0.8450,-0.9100
590,0.8450,-0.9100
393,0.8450,-0.9150
663,0.8450,-0.9150
371,0.8450,-0.9150
756,0.8450,-0.9150
330,0.8450,-0.9150
671,0.8450,-0.9150
362,0.8500,-0.9200
647,0.8500,-0.9200
284,0.8500,-0.9200
695,0.8500,-0.9200
345,0.8500,-0.9200
689,0.8500,-0.9200
367,0.8500,-0.9200
667,0.8500,-0.9200
330,0.8500,-0.9200
638,0.8500,-0.9200
300,0.8600,-0.9200
629,0.8600,-0.9200
310,0.8600,-0.9200
718,0.8600,-0.9200
434,0.8600,-0.9200
726,0.8600,-0.9200
439,0.8600,-0.9200
742,0.8600,-0.9200
504,0.8600,-0.9200
719,0.8600,-0.9200
439,0.8650,-0.9250
721,0.8650,-0.9250
295,0.8650,-0.9250
633,0.8650,-0.9250
298,0.8650,-0.9250
615,0.8650,-0.9250
341,0.8650,-0.9250
671,0.8650,-0.9250
332,0.8650,-0.9250
568,0.8650,-0.9250
355,0.8700,-0.9250
609,0.8700,-0.9250
343,0.8700,-0.9250
622,0.8750,-0.9250
268,0.8750,-0.9250
749,0.8750,-0.9250
384,0.8750,-0.9250
807,0.8750,-0.9250
406,0.8750,-0.9250
716,0.8750,-0.9250
305,0.8800,-0.9350
641,0.8800,-0.9350
265,0.8800,-0.9350
511,0.8800,-0.9350
223,0.8800,-0.9350
562,0.8800,-0.9350
265,0.8800,-0.9350
617,0.8800,-0.9350
285,0.8800,-0.9350
623,0.8800,-0.9350
285,0.8800,-0.9350
665,0.8800,-0.9350
249,0.8800,-0.9350
629,0.8800,-0.9350
297,0.8800,-0.9350
694,0.8800,-0.9350
299,0.8800,-0.9350
674,0.8800,-0.9350
295,0.8800,-0.9350
662,0.8800,-0.9350
242,0.8850,-0.9350
604,0.8850,-0.9350
220,0.8850,-0.9350
865,0.8850,-0.9350
386,0.8850,-0.9350
1017,0.8850,-0.9350
885,0.8850,-0.9350
1018,0.8850,-0.9350
1018,0.8850,-0.9350
1018,0.8850,-0.9350
1018,0.8900,-0.9350
1018,0.8900,-0.9350
1018,0.8900,-0.9350
1018,0.8900,-0.9350
1018,0.8900,-0.9350
1018,0.8900,-0.9350
1018,0.8900,-0.9350
1018,0.8900,-0.9350
957,0.8900,-0.9350
1018,0.8900,-0.9350
770,0.9000,-0.9350
955,0.9000,-0.9350
568,0.9000,-0.9350
870,0.9000,-0.9350
462,0.9000,-0.9350
697,0.9000,-0.9350
376,0.9000,-0.9350
621,0.9000,-0.9350
222,0.9000,-0.9350
488,0.9000,-0.9350
82,0.9050,-0.9300
472,0.9050,-0.9300
102,0.9050,-0.9300
423,0.9050,-0.9300
0,0.9050,-0.9300
364,0.9050,-0.9300
142,0.9050,-0.9300
445,0.9050,-0.9300
79,0.9050,-0.9300
440,0.9050,-0.9300
44,0.9050,-0.9300
367,0.9050,-0.9300
0,0.9050,-0.9300
355,0.9050,-0.9300
40,0.9050,-0.9300
363,0.9050,-0.9300
0,0.9050,-0.9300
301,0.9050,-0.9300
74,0.9050,-0.9300
390,0.9050,-0.9300
74,0.9050,-0.9300
393,0.9050,-0.9300
66,0.9050,-0.9300
376,0.9050,-0.9300
48,0.9050,-0.9300
502,0.9050,-0.9300
218,0.9050,-0.9300
595,0.9050,-0.9300
216,0.9050,-0.9300
419,0.9050,-0.9300
241,0.9050,-0.9300
527,0.9050,-0.9300
295,0.9050,-0.9300
543,0.9050,-0.9300
0,0.9050,-0.9300
0,0.9050,-0.9300
0,0.9050,-0.9300
0,0.9050,-0.9300
0,0.9050,-0.9300
0,0.9050,-0.9300
